seed=1725259037
seed2=79
L=10
nstep=10000
tw=1
Jz=0
eps=5
alpha=0
Sz=0
pbc=0
type=1
beta=10
tau=0.001
Jxy=1
wc=10
ss=1
              1           -0.6              0       -18.2502
              2           -0.6              0       -18.4092
              3           -0.6              0       -18.5195
              4           -0.6              0       -18.5648
              5           -0.6              0       -18.6278
              6           -0.6              0       -18.6698
              7           -0.6              0       -18.7028
              8           -0.6              0       -18.7275
              9      -0.688889              0       -18.7809
             10          -0.76              0       -18.8224
             11      -0.854545              0       -19.1336
             12      -0.933333              0       -19.4801
             13      -0.984615              0       -19.8235
             14       -1.02857              0       -20.1235
             15          -1.08              0       -20.3819
             16         -1.125              0        -20.608
             17       -1.16471              0       -20.7976
             18       -1.17778              0       -20.9845
             19       -1.18947              0       -21.1517
             20           -1.2              0       -21.3021
             21       -1.20952              0       -21.4383
             22       -1.21818              0       -21.5565
             23       -1.22609              0       -21.6645
             24         -1.225              0       -21.7645
             25         -1.208              0       -21.8586
             26           -1.2              0       -21.9467
             27       -1.18519              0       -22.0509
             28       -1.18571              0        -22.134
             29       -1.17241              0       -22.2464
             30          -1.16              0       -22.3534
             31       -1.14839              0       -22.4513
             32       -1.13125              0       -22.5728
             33       -1.12121              0         -22.68
             34       -1.11765              0       -22.7914
             35       -1.10857              0       -22.9031
             36           -1.1              0       -23.0087
             37       -1.09189              0       -23.1085
             38       -1.08947              0       -23.2038
             39       -1.08718              0        -23.298
             40         -1.085              0       -23.3875
             41       -1.08293              0       -23.4722
             42       -1.08095              0       -23.5521
             43       -1.07907              0       -23.6283
             44       -1.07727              0        -23.701
             45          -1.08              0       -23.7616
             46       -1.08261              0       -23.8426
             47       -1.08085              0        -23.921
             48       -1.07917              0       -23.9961
             49       -1.07347              0       -24.0715
             50         -1.064              0       -24.1539
             51        -1.0549              0       -24.2331
             52       -1.04615              0       -24.3093
             53       -1.03774              0       -24.3825
             54       -1.02963              0       -24.4531
             55       -1.01455              0       -24.5331
             56             -1              0       -24.6102
             57      -0.985965              0       -24.6847
             58      -0.972414              0       -24.7565
             59      -0.959322              0       -24.8499
             60      -0.946667              0       -24.9401
             61      -0.934426              0       -25.0273
             62      -0.922581              0       -25.1118
             63      -0.911111              0       -25.1936
             64           -0.9              0       -25.2728
             65      -0.889231              0       -25.3496
             66      -0.878788              0        -25.424
             67      -0.865672              0        -25.497
             68      -0.855882              0       -25.5655
             69      -0.846377              0       -25.6319
             70      -0.837143              0       -25.6965
             71      -0.828169              0       -25.7582
             72      -0.819444              0       -25.8182
             73      -0.810959              0       -25.8766
             74      -0.802703              0       -25.9334
             75         -0.792              0       -25.9918
             76      -0.781579              0       -26.0487
             77      -0.774026              0       -26.1039
             78      -0.766667              0       -26.1577
             79      -0.759494              0       -26.2094
             80        -0.7525              0       -26.2599
             81      -0.748148              0       -26.3089
             82      -0.741463              0       -26.3569
             83       -0.73494              0       -26.4037
             84      -0.728571              0       -26.4495
             85      -0.722353              0       -26.4941
             86      -0.716279              0       -26.5377
             87      -0.708046              0       -26.5811
             88           -0.7              0       -26.6236
             89      -0.692135              0        -26.665
             90      -0.684444              0       -26.7056
             91      -0.676923              0       -26.7453
             92      -0.671739              0       -26.7832
             93      -0.666667              0       -26.8204
             94      -0.661702              0       -26.8568
             95      -0.656842              0       -26.8924
             96      -0.652083              0       -26.9273
             97      -0.647423              0       -26.9614
             98      -0.640816              0       -26.9956
             99      -0.634343              0       -27.0292
            100         -0.632              0        -27.059
            101      -0.629703              0       -27.0882
            102      -0.627451              0       -27.1185
            103      -0.625243              0       -27.1482
            104      -0.623077              0       -27.1774
            105      -0.619048              0       -27.2068
            106      -0.615094              0       -27.2356
            107      -0.611215              0       -27.2639
            108      -0.607407              0       -27.2917
            109       -0.60367              0        -27.319
            110           -0.6              0       -27.3457
            111      -0.596396              0        -27.372
            112      -0.591071              0       -27.3983
            113      -0.585841              0       -27.4241
            114      -0.580702              0       -27.4495
            115      -0.575652              0       -27.4744
            116       -0.57069              0       -27.4989
            117      -0.565812              0        -27.523
            118      -0.561017              0       -27.5466
            119      -0.557983              0       -27.5698
            120      -0.556667              0       -27.5922
            121      -0.555372              0       -27.6143
            122      -0.555738              0       -27.6352
            123      -0.556098              0       -27.6559
            124      -0.556452              0       -27.6762
            125        -0.5568              0       -27.6961
            126      -0.557143              0       -27.7158
            127      -0.555906              0       -27.7327
            128      -0.553125              0       -27.7523
            129      -0.550388              0       -27.7716
            130      -0.546154              0       -27.7912
            131      -0.541985              0       -27.8105
            132      -0.537879              0       -27.8294
            133      -0.533835              0       -27.8481
            134      -0.529851              0       -27.8665
            135      -0.525926              0       -27.8847
            136      -0.522059              0       -27.9026
            137      -0.519708              0         -27.92
            138      -0.517391              0       -27.9372
            139      -0.515108              0       -27.9541
            140      -0.512857              0       -27.9707
            141      -0.512057              0       -27.9855
            142      -0.511268              0       -28.0004
            143       -0.51049              0       -28.0151
            144      -0.511111              0       -28.0284
            145      -0.511724              0       -28.0414
            146      -0.510959              0       -28.0545
            147      -0.510204              0       -28.0674
            148      -0.509459              0       -28.0801
            149      -0.508725              0       -28.0927
            150         -0.508              0       -28.1051
            151       -0.50596              0       -28.1185
            152      -0.502632              0        -28.133
            153      -0.499346              0       -28.1472
            154      -0.496104              0       -28.1613
            155      -0.492903              0       -28.1752
            156      -0.489744              0       -28.1889
            157      -0.486624              0       -28.2025
            158      -0.483544              0       -28.2158
            159      -0.480503              0        -28.229
            160        -0.4775              0       -28.2421
            161      -0.474534              0        -28.255
            162      -0.471605              0       -28.2677
            163      -0.469939              0        -28.279
            164      -0.467073              0       -28.2914
            165      -0.464242              0       -28.3036
            166      -0.461446              0       -28.3157
            167      -0.458683              0       -28.3277
            168      -0.455952              0       -28.3395
            169      -0.453254              0       -28.3512
            170      -0.450588              0       -28.3628
            171      -0.447953              0       -28.3742
            172      -0.445349              0       -28.3855
            173      -0.442775              0       -28.3966
            174       -0.44023              0       -28.4077
            175      -0.437714              0       -28.4186
            176      -0.436364              0        -28.429
            177      -0.435028              0       -28.4393
            178      -0.434831              0       -28.4487
            179      -0.434637              0       -28.4579
            180      -0.435556              0       -28.4669
            181      -0.435359              0       -28.4762
            182      -0.435165              0       -28.4853
            183      -0.434973              0       -28.4944
            184       -0.43587              0       -28.5028
            185      -0.435676              0       -28.5117
            186      -0.434409              0       -28.5213
            187      -0.433155              0       -28.5309
            188      -0.432979              0       -28.5391
            189      -0.432804              0       -28.5472
            190      -0.431579              0       -28.5552
            191      -0.430366              0       -28.5632
            192      -0.428125              0       -28.5724
            193      -0.425907              0       -28.5814
            194      -0.423711              0       -28.5903
            195      -0.421538              0       -28.5992
            196      -0.419388              0       -28.6079
            197      -0.417259              0       -28.6166
            198      -0.415152              0       -28.6252
            199      -0.413065              0       -28.6337
            200         -0.411              0       -28.6421
            201      -0.408955              0       -28.6504
            202      -0.406931              0       -28.6586
            203      -0.404926              0       -28.6668
            204      -0.403922              0       -28.6735
            205      -0.402927              0       -28.6802
            206      -0.401942              0       -28.6868
            207      -0.400966              0       -28.6934
            208           -0.4              0       -28.6999
            209      -0.399043              0       -28.7063
            210      -0.398095              0       -28.7126
            211      -0.398104              0       -28.7197
            212      -0.398113              0       -28.7268
            213      -0.399061              0       -28.7331
            214           -0.4              0       -28.7393
            215       -0.40093              0       -28.7455
            216      -0.401852              0       -28.7516
            217      -0.400922              0       -28.7584
            218           -0.4              0       -28.7652
            219      -0.399087              0       -28.7719
            220      -0.398182              0       -28.7785
            221      -0.397285              0       -28.7851
            222      -0.395495              0        -28.792
            223      -0.394619              0       -28.7973
            224       -0.39375              0       -28.8025
            225         -0.392              0       -28.8093
            226      -0.390265              0       -28.8159
            227      -0.388546              0       -28.8225
            228      -0.386842              0       -28.8291
            229      -0.385153              0       -28.8356
            230      -0.385217              0       -28.8402
            231      -0.384416              0       -28.8459
            232      -0.383621              0       -28.8515
            233      -0.382833              0        -28.857
            234      -0.382051              0       -28.8625
            235      -0.381277              0       -28.8679
            236      -0.380508              0       -28.8733
            237      -0.379747              0       -28.8787
            238      -0.378992              0        -28.884
            239      -0.378243              0       -28.8893
            240      -0.378333              0       -28.8941
            241      -0.378423              0       -28.8989
            242      -0.378512              0       -28.9038
            243      -0.379424              0       -28.9075
            244      -0.379508              0       -28.9115
            245      -0.379592              0       -28.9155
            246      -0.380488              0        -28.919
            247      -0.380567              0       -28.9232
            248      -0.379839              0       -28.9285
            249      -0.379116              0       -28.9338
            250        -0.3792              0        -28.939
            251      -0.379283              0       -28.9441
            252      -0.379365              0       -28.9492
            253      -0.379447              0       -28.9542
            254      -0.380315              0       -28.9587
            255      -0.381176              0       -28.9628
            256       -0.38125              0       -28.9677
            257      -0.380545              0       -28.9728
            258      -0.379845              0       -28.9779
            259      -0.379151              0        -28.983
            260      -0.378462              0        -28.988
            261      -0.377778              0        -28.993
            262      -0.377863              0       -28.9974
            263      -0.377947              0       -29.0017
            264       -0.37803              0       -29.0052
            265      -0.378868              0       -29.0086
            266      -0.379699              0        -29.012
            267      -0.379775              0       -29.0154
            268      -0.379851              0       -29.0188
            269      -0.380669              0       -29.0214
            270      -0.381481              0       -29.0241
            271       -0.38155              0       -29.0272
            272      -0.381618              0       -29.0304
            273      -0.381685              0       -29.0336
            274      -0.381022              0       -29.0374
            275      -0.380364              0       -29.0409
            276       -0.37971              0       -29.0444
            277      -0.379061              0       -29.0478
            278      -0.378417              0       -29.0512
            279      -0.377778              0       -29.0546
            280      -0.377143              0       -29.0591
            281      -0.376512              0       -29.0636
            282      -0.375887              0        -29.068
            283      -0.375265              0       -29.0724
            284      -0.374648              0       -29.0768
            285      -0.374737              0         -29.08
            286      -0.374825              0       -29.0832
            287      -0.374913              0       -29.0865
            288         -0.375              0       -29.0902
            289      -0.374394              0       -29.0939
            290      -0.373793              0       -29.0976
            291      -0.373883              0       -29.1009
            292      -0.373973              0       -29.1043
            293      -0.374061              0       -29.1079
            294       -0.37415              0       -29.1114
            295      -0.374237              0        -29.115
            296      -0.375676              0       -29.1173
            297      -0.375758              0        -29.121
            298      -0.375839              0       -29.1248
            299       -0.37592              0       -29.1285
            300         -0.376              0       -29.1321
            301      -0.376744              0       -29.1355
            302      -0.376821              0       -29.1392
            303      -0.376898              0       -29.1428
            304      -0.376316              0       -29.1464
            305      -0.375738              0       -29.1499
            306      -0.375163              0       -29.1535
            307      -0.374593              0        -29.157
            308      -0.374026              0       -29.1605
            309      -0.374757              0       -29.1637
            310      -0.375484              0        -29.167
            311      -0.376206              0       -29.1702
            312      -0.376923              0       -29.1734
            313      -0.377636              0       -29.1766
            314      -0.378344              0       -29.1798
            315      -0.378413              0       -29.1829
            316      -0.378481              0       -29.1861
            317      -0.378549              0       -29.1892
            318      -0.377987              0       -29.1924
            319      -0.377429              0       -29.1957
            320      -0.376875              0       -29.1989
            321      -0.376324              0       -29.2022
            322      -0.375776              0       -29.2054
            323      -0.375232              0       -29.2086
            324      -0.374691              0       -29.2117
            325      -0.374769              0       -29.2146
