seed=1725239196
seed2=202
L=10
nstep=10000
tw=1
Jz=0
eps=5
alpha=0
Sz=0
pbc=0
type=1
beta=10
tau=0.001
Jxy=1
wc=10
ss=1
              1             -1              0       -14.2748
              2           -1.2              0       -14.9101
              3       -1.46667              0       -16.1998
              4          -1.65              0       -17.1722
              5          -1.76              0       -17.7913
              6           -1.8              0       -18.2059
              7       -1.82857              0       -18.5412
              8         -1.875              0        -18.792
              9       -1.88889              0       -19.0055
             10          -1.92              0        -19.191
             11       -1.90909              0       -19.3908
             12       -1.86667              0       -19.6742
             13       -1.83077              0       -19.9165
             14           -1.8              0       -20.1161
             15       -1.74667              0       -20.3085
             16           -1.7              0        -20.478
             17       -1.67059              0       -20.6223
             18       -1.66667              0       -20.7456
             19       -1.67368              0       -20.8639
             20          -1.68              0       -20.9714
             21       -1.66667              0       -21.0732
             22       -1.65455              0       -21.1566
             23       -1.64348              0       -21.2248
             24       -1.63333              0       -21.2926
             25         -1.616              0       -21.3612
             26           -1.6              0       -21.4326
             27       -1.59259              0       -21.5008
             28       -1.57857              0       -21.5736
             29       -1.56552              0       -21.6413
             30          -1.56              0        -21.704
             31       -1.55484              0       -21.7626
             32          -1.55              0       -21.8176
             33       -1.54545              0       -21.8693
             34       -1.54118              0       -21.9179
             35       -1.54286              0         -21.96
             36       -1.53333              0       -21.9929
             37       -1.52973              0       -22.0217
             38       -1.53158              0       -22.0486
             39       -1.52821              0       -22.0749
             40          -1.52              0       -22.1004
             41       -1.50732              0       -22.1251
             42       -1.49524              0       -22.1485
             43       -1.48372              0       -22.1781
             44       -1.47273              0       -22.2063
             45       -1.46667              0       -22.2298
             46       -1.46087              0       -22.2523
             47       -1.45532              0       -22.2739
             48          -1.45              0       -22.2945
             49       -1.44898              0       -22.3137
             50         -1.444              0       -22.3285
             51       -1.43529              0       -22.3418
             52       -1.42692              0       -22.3525
             53       -1.42264              0       -22.3623
             54       -1.42593              0       -22.3695
             55       -1.42182              0        -22.391
             56       -1.41429              0       -22.4118
             57       -1.40702              0       -22.4301
             58       -1.40345              0       -22.4499
             59       -1.40339              0       -22.4715
             60       -1.40667              0       -22.4904
             61       -1.40656              0       -22.5109
             62       -1.40323              0       -22.5314
             63           -1.4              0        -22.553
             64       -1.39688              0       -22.5738
             65       -1.39385              0        -22.595
             66       -1.39091              0       -22.6155
             67       -1.38507              0       -22.6365
             68       -1.37941              0       -22.6558
             69       -1.37101              0       -22.6752
             70       -1.36286              0        -22.694
             71       -1.35775              0        -22.708
             72       -1.35278              0       -22.7216
             73       -1.34795              0       -22.7349
             74       -1.34595              0       -22.7473
             75         -1.344              0       -22.7576
             76       -1.33947              0        -22.766
             77       -1.33247              0       -22.7839
             78       -1.32564              0       -22.8014
             79       -1.31899              0       -22.8184
             80        -1.3125              0        -22.835
             81       -1.30617              0       -22.8499
             82           -1.3              0       -22.8653
             83       -1.29398              0       -22.8804
             84       -1.29048              0       -22.8948
             85       -1.28471              0       -22.9095
             86       -1.27907              0       -22.9239
             87       -1.27586              0       -22.9353
             88         -1.275              0       -22.9485
             89       -1.27191              0         -22.96
             90       -1.26889              0       -22.9711
             91       -1.26593              0        -22.982
             92       -1.26304              0       -22.9911
             93       -1.26022              0       -22.9993
             94       -1.25745              0       -23.0069
             95       -1.25684              0       -23.0132
             96       -1.25417              0       -23.0202
             97       -1.25361              0       -23.0288
             98       -1.25714              0       -23.0401
             99       -1.26061              0       -23.0535
            100         -1.266              0       -23.0669
            101       -1.26733              0       -23.0813
            102       -1.26471              0       -23.0962
            103       -1.26214              0       -23.1096
            104       -1.26154              0       -23.1204
            105       -1.26095              0       -23.1336
            106       -1.26038              0       -23.1464
            107       -1.26168              0       -23.1598
            108       -1.25926              0       -23.1749
            109       -1.25688              0       -23.1922
            110       -1.25636              0       -23.2091
            111       -1.25586              0       -23.2258
            112       -1.26071              0       -23.2395
            113       -1.26549              0        -23.253
            114       -1.27193              0       -23.2627
            115       -1.27652              0       -23.2758
            116       -1.28103              0       -23.2878
            117       -1.28889              0       -23.2985
            118       -1.29322              0       -23.3104
            119       -1.29748              0       -23.3208
            120           -1.3              0       -23.3341
            121       -1.30248              0       -23.3472
            122       -1.30492              0       -23.3588
            123       -1.30407              0       -23.3722
            124       -1.30323              0       -23.3841
            125        -1.3024              0       -23.3957
            126       -1.30159              0        -23.407
            127       -1.30079              0       -23.4181
            128           -1.3              0        -23.429
            129       -1.29922              0       -23.4397
            130       -1.29846              0       -23.4503
            131       -1.29771              0       -23.4601
            132       -1.29545              0       -23.4723
            133       -1.29474              0       -23.4826
            134       -1.29552              0       -23.4924
            135       -1.29778              0       -23.5019
            136       -1.29706              0        -23.513
            137       -1.29489              0       -23.5239
            138        -1.2942              0       -23.5325
            139       -1.29209              0       -23.5411
            140       -1.29143              0       -23.5493
            141       -1.28936              0       -23.5582
            142       -1.28732              0       -23.5671
            143       -1.28392              0       -23.5761
            144       -1.27917              0       -23.5865
            145       -1.27586              0       -23.5941
            146       -1.27397              0       -23.6012
            147       -1.27211              0       -23.6091
            148       -1.27162              0       -23.6168
            149       -1.26846              0       -23.6272
            150       -1.26933              0       -23.6366
            151       -1.26887              0        -23.646
            152       -1.26842              0       -23.6553
            153       -1.26536              0       -23.6655
            154       -1.26234              0       -23.6756
            155       -1.25806              0       -23.6856
            156       -1.25385              0       -23.6955
            157       -1.24968              0       -23.7052
            158       -1.24557              0       -23.7148
            159       -1.24151              0       -23.7243
            160        -1.2375              0       -23.7334
            161       -1.23354              0       -23.7424
            162       -1.23086              0       -23.7506
            163       -1.22822              0       -23.7587
            164       -1.22683              0       -23.7659
            165       -1.22545              0       -23.7741
            166       -1.22289              0       -23.7822
            167       -1.22036              0       -23.7902
            168       -1.21786              0       -23.7982
            169       -1.21657              0       -23.8053
            170       -1.21529              0       -23.8127
            171       -1.21404              0       -23.8197
            172       -1.21163              0       -23.8272
            173       -1.21156              0       -23.8334
            174       -1.21264              0       -23.8394
            175       -1.21257              0       -23.8447
            176        -1.2125              0       -23.8509
            177       -1.21017              0       -23.8583
            178       -1.20787              0       -23.8656
            179       -1.20559              0       -23.8725
            180       -1.20333              0       -23.8803
            181        -1.2011              0       -23.8878
            182           -1.2              0       -23.8947
            183       -1.20109              0       -23.9004
            184       -1.20217              0        -23.906
            185       -1.20432              0       -23.9104
            186       -1.20538              0       -23.9153
            187       -1.20642              0       -23.9198
            188       -1.20532              0       -23.9254
            189       -1.20423              0        -23.931
            190       -1.20316              0       -23.9363
            191       -1.20209              0       -23.9427
            192       -1.20104              0       -23.9488
            193           -1.2              0       -23.9551
            194       -1.19794              0       -23.9603
            195        -1.1959              0       -23.9655
            196        -1.1949              0       -23.9704
            197       -1.19289              0       -23.9754
            198       -1.19091              0       -23.9805
            199       -1.18894              0       -23.9856
            200         -1.185              0       -23.9919
            201        -1.1801              0       -23.9986
            202       -1.17525              0       -24.0052
            203       -1.17044              0       -24.0117
            204       -1.16667              0       -24.0193
            205        -1.1639              0       -24.0263
            206       -1.16214              0       -24.0331
            207       -1.16039              0       -24.0398
            208       -1.15865              0        -24.046
            209       -1.15694              0       -24.0528
            210       -1.15429              0       -24.0627
            211       -1.15261              0       -24.0729
            212       -1.15094              0       -24.0828
            213        -1.1493              0       -24.0926
            214       -1.14766              0       -24.1024
            215       -1.14605              0        -24.112
            216       -1.14352              0       -24.1223
            217       -1.14101              0       -24.1312
            218       -1.13853              0       -24.1401
            219       -1.13607              0       -24.1489
            220       -1.13545              0       -24.1591
            221       -1.13394              0       -24.1716
            222       -1.13243              0        -24.184
            223       -1.12825              0       -24.1975
            224       -1.12321              0        -24.211
            225       -1.11822              0       -24.2244
            226       -1.11327              0       -24.2376
            227       -1.10837              0       -24.2508
            228       -1.10439              0       -24.2636
            229       -1.10044              0       -24.2763
            230       -1.09652              0        -24.289
            231       -1.09264              0       -24.3015
            232       -1.08966              0       -24.3136
            233       -1.08498              0       -24.3261
            234       -1.08034              0       -24.3384
            235        -1.0766              0       -24.3503
            236       -1.07288              0       -24.3621
            237        -1.0692              0       -24.3738
            238       -1.06555              0       -24.3854
            239       -1.06192              0       -24.3969
            240       -1.05833              0       -24.4083
            241       -1.05477              0       -24.4196
            242       -1.05041              0       -24.4311
            243       -1.04609              0       -24.4426
            244        -1.0418              0        -24.454
            245       -1.03755              0       -24.4653
            246       -1.03496              0       -24.4756
            247       -1.03239              0       -24.4859
            248       -1.03065              0       -24.4955
            249       -1.02892              0        -24.505
            250        -1.0272              0       -24.5144
            251       -1.02709              0       -24.5237
            252       -1.02778              0       -24.5305
            253       -1.02767              0       -24.5373
            254        -1.0252              0       -24.5468
            255       -1.02196              0       -24.5562
            256       -1.01875              0       -24.5655
            257       -1.01479              0       -24.5758
            258       -1.01163              0       -24.5846
            259       -1.00927              0       -24.5931
            260       -1.00538              0       -24.6032
            261       -1.00153              0       -24.6133
            262       -0.99771              0       -24.6232
            263      -0.993916              0       -24.6331
            264      -0.990152              0       -24.6429
            265      -0.987925              0       -24.6515
            266      -0.984211              0       -24.6611
            267      -0.980524              0       -24.6707
            268      -0.976866              0       -24.6802
            269      -0.973234              0       -24.6896
            270       -0.96963              0        -24.699
            271      -0.966052              0       -24.7083
            272      -0.963235              0       -24.7165
            273       -0.96044              0       -24.7246
            274      -0.957664              0       -24.7326
            275      -0.955636              0       -24.7401
            276      -0.953623              0       -24.7476
            277      -0.951625              0       -24.7564
            278       -0.95036              0       -24.7647
            279      -0.949104              0       -24.7729
            280      -0.947857              0       -24.7811
            281      -0.948043              0       -24.7881
            282      -0.947518              0       -24.7962
            283       -0.94629              0       -24.8043
            284       -0.94507              0       -24.8122
            285      -0.943158              0       -24.8204
            286      -0.940559              0       -24.8286
            287      -0.937979              0       -24.8367
            288      -0.935417              0       -24.8448
            289      -0.932872              0       -24.8528
            290      -0.931034              0       -24.8592
            291       -0.92921              0       -24.8655
            292      -0.927397              0       -24.8718
            293      -0.924915              0       -24.8794
            294      -0.923129              0       -24.8868
            295          -0.92              0       -24.8947
            296      -0.917568              0       -24.9024
            297      -0.915152              0         -24.91
            298      -0.912752              0       -24.9177
            299      -0.909699              0       -24.9254
            300      -0.907333              0       -24.9327
            301      -0.904983              0       -24.9399
            302      -0.902649              0       -24.9472
            303       -0.90033              0       -24.9543
            304      -0.898026              0       -24.9616
            305      -0.895738              0       -24.9688
            306      -0.893464              0        -24.976
            307      -0.891205              0       -24.9831
            308      -0.888312              0       -24.9904
            309      -0.885437              0       -24.9976
            310      -0.883226              0       -25.0047
            311      -0.880386              0       -25.0118
            312      -0.877564              0       -25.0189
            313       -0.87476              0       -25.0259
            314      -0.871975              0       -25.0329
            315      -0.869206              0       -25.0399
            316      -0.867089              0       -25.0461
            317      -0.865615              0       -25.0517
            318      -0.864151              0       -25.0573
            319      -0.862696              0       -25.0628
            320       -0.86125              0       -25.0688
            321      -0.859813              0       -25.0747
            322      -0.858385              0       -25.0806
            323      -0.857585              0       -25.0862
            324      -0.856173              0       -25.0926
            325      -0.854769              0        -25.099
