seed=1725278593
seed2=100
L=10
nstep=10000
tw=1
Jz=0
eps=5
alpha=0
Sz=0
pbc=0
type=1
beta=10
tau=0.001
Jxy=1
wc=10
ss=1
              1              0              0       -2.62928
              2           -0.5              0       -3.78019
              3           -0.8              0       -5.38251
              4           -1.1              0       -7.76814
              5          -1.24              0       -9.61321
              6           -1.3              0       -11.1139
              7       -1.31429              0       -12.1901
              8           -1.3              0       -13.1164
              9       -1.28889              0       -13.8453
             10          -1.28              0       -14.4224
             11       -1.25455              0       -14.9337
             12           -1.2              0        -15.547
             13       -1.15385              0       -16.0659
             14       -1.12857              0       -16.4993
             15       -1.10667              0       -16.8758
             16         -1.075              0       -17.2211
             17       -1.07059              0       -17.5137
             18       -1.05556              0       -17.9403
             19       -1.04211              0       -18.4726
             20          -1.01              0       -19.0449
             21      -0.990476              0       -19.5604
             22      -0.972727              0        -20.029
             23      -0.956522              0       -20.4569
             24          -0.95              0       -20.8461
             25         -0.936              0       -21.2069
             26      -0.923077              0       -21.5399
             27      -0.896296              0       -21.8756
             28      -0.864286              0       -22.1891
             29      -0.834483              0        -22.481
             30      -0.806667              0       -22.7534
             31      -0.787097              0       -23.0051
             32       -0.76875              0        -23.241
             33      -0.751515              0       -23.4627
             34      -0.741176              0       -23.6686
             35      -0.725714              0       -23.8654
             36      -0.711111              0       -24.0512
             37      -0.697297              0        -24.227
             38      -0.684211              0       -24.3936
             39      -0.671795              0       -24.5516
             40          -0.66              0       -24.7017
             41       -0.64878              0       -24.8445
             42      -0.642857              0       -24.9775
             43      -0.632558              0       -25.1066
             44      -0.627273              0       -25.2295
             45      -0.622222              0       -25.3468
             46      -0.617391              0       -25.4591
             47      -0.612766              0       -25.5666
             48      -0.608333              0       -25.6696
             49      -0.604082              0       -25.7684
             50         -0.596              0       -25.8592
             51      -0.588235              0       -25.9503
             52      -0.580769              0       -26.0378
             53      -0.569811              0       -26.1249
             54      -0.559259              0       -26.2088
             55      -0.549091              0       -26.2896
             56      -0.539286              0       -26.3675
             57      -0.529825              0       -26.4427
             58       -0.52069              0       -26.5153
             59      -0.515254              0       -26.5841
             60      -0.513333              0         -26.65
             61      -0.504918              0       -26.7156
             62           -0.5              0        -26.777
             63      -0.492063              0       -26.8385
             64      -0.484375              0       -26.8981
             65      -0.476923              0       -26.9559
             66      -0.469697              0       -27.0119
             67      -0.462687              0       -27.0663
             68      -0.455882              0        -27.119
             69      -0.449275              0       -27.1703
             70      -0.442857              0         -27.22
             71       -0.43662              0       -27.2684
             72      -0.433333              0       -27.3148
             73      -0.432877              0       -27.3577
             74       -0.42973              0       -27.4016
             75      -0.426667              0       -27.4444
             76      -0.423684              0        -27.486
             77      -0.420779              0       -27.5266
             78      -0.415385              0       -27.5667
             79      -0.410127              0       -27.6058
             80         -0.405              0       -27.6439
             81           -0.4              0        -27.681
             82      -0.395122              0       -27.7173
             83      -0.390361              0       -27.7527
             84      -0.385714              0       -27.7872
             85      -0.381176              0       -27.8209
             86       -0.37907              0       -27.8515
             87      -0.377011              0       -27.8815
             88         -0.375              0       -27.9107
             89      -0.373034              0       -27.9393
             90      -0.371111              0       -27.9672
             91      -0.369231              0       -27.9946
             92      -0.367391              0       -28.0213
             93      -0.363441              0       -28.0496
             94      -0.359574              0       -28.0773
             95      -0.357895              0       -28.1042
             96       -0.35625              0       -28.1305
             97      -0.354639              0       -28.1563
             98      -0.353061              0       -28.1816
             99      -0.351515              0       -28.2063
            100         -0.352              0       -28.2298
            101      -0.350495              0        -28.252
            102       -0.34902              0       -28.2738
            103      -0.345631              0       -28.2969
            104      -0.342308              0       -28.3195
            105      -0.339048              0       -28.3418
            106      -0.337736              0       -28.3635
            107      -0.336449              0       -28.3849
            108      -0.335185              0       -28.4058
            109       -0.33211              0       -28.4264
            110      -0.329091              0       -28.4467
            111      -0.326126              0       -28.4666
            112      -0.323214              0       -28.4861
            113      -0.320354              0       -28.5053
            114      -0.317544              0       -28.5241
            115      -0.314783              0       -28.5426
            116      -0.312069              0       -28.5608
            117      -0.309402              0       -28.5787
            118       -0.30678              0       -28.5963
            119      -0.304202              0       -28.6136
            120      -0.301667              0       -28.6306
            121      -0.299174              0       -28.6473
            122      -0.296721              0       -28.6638
            123      -0.294309              0       -28.6799
            124      -0.291935              0       -28.6958
            125        -0.2896              0       -28.7115
            126      -0.287302              0       -28.7269
            127      -0.285039              0       -28.7421
            128      -0.284375              0       -28.7563
            129      -0.283721              0       -28.7703
            130      -0.283077              0       -28.7841
            131      -0.282443              0       -28.7977
            132      -0.281818              0       -28.8111
            133      -0.279699              0       -28.8249
            134      -0.277612              0       -28.8386
            135      -0.275556              0        -28.852
            136      -0.273529              0       -28.8653
            137      -0.271533              0       -28.8783
            138      -0.271014              0       -28.8907
            139      -0.270504              0       -28.9028
            140          -0.27              0       -28.9148
            141      -0.269504              0       -28.9266
            142      -0.270423              0       -28.9375
            143      -0.271329              0       -28.9482
            144      -0.269444              0       -28.9601
            145      -0.267586              0       -28.9718
            146      -0.267123              0       -28.9829
            147      -0.266667              0       -28.9938
            148      -0.266216              0       -29.0047
            149       -0.26443              0       -29.0157
            150      -0.262667              0       -29.0267
            151      -0.260927              0       -29.0374
            152      -0.259211              0       -29.0481
            153      -0.257516              0       -29.0586
            154      -0.257143              0       -29.0688
            155      -0.256774              0       -29.0789
            156      -0.257692              0       -29.0884
            157      -0.258599              0       -29.0978
            158      -0.260759              0        -29.106
            159      -0.264151              0        -29.114
            160        -0.2675              0       -29.1219
            161      -0.270807              0       -29.1297
            162      -0.274074              0       -29.1379
            163      -0.277301              0       -29.1412
            164      -0.280488              0       -29.1445
            165      -0.282424              0       -29.1526
            166      -0.281928              0       -29.1612
            167      -0.281437              0       -29.1696
            168      -0.280952              0        -29.178
            169      -0.280473              0       -29.1862
            170          -0.28              0       -29.1944
            171      -0.279532              0       -29.2024
            172       -0.27907              0       -29.2104
            173      -0.279769              0       -29.2182
            174       -0.28046              0       -29.2259
            175      -0.281143              0       -29.2336
            176      -0.281818              0       -29.2412
            177      -0.282486              0       -29.2487
            178      -0.282022              0       -29.2561
            179      -0.281564              0       -29.2634
            180      -0.282222              0       -29.2705
            181      -0.282873              0       -29.2774
            182      -0.283516              0       -29.2842
            183      -0.284153              0        -29.291
            184       -0.28587              0        -29.297
            185      -0.286486              0       -29.3031
            186      -0.287097              0       -29.3092
            187      -0.287701              0       -29.3153
            188      -0.287234              0       -29.3217
            189      -0.286772              0       -29.3281
            190      -0.286316              0       -29.3343
            191      -0.285864              0       -29.3406
            192      -0.285417              0       -29.3468
            193       -0.28601              0       -29.3524
            194      -0.286598              0       -29.3571
            195      -0.286598              0       -29.3571
            196      -0.286598              0       -29.3571
            197      -0.285128              0       -29.3637
            198      -0.283673              0       -29.3703
            199      -0.282234              0       -29.3768
            200      -0.280808              0       -29.3833
            201      -0.279397              0       -29.3897
            202         -0.278              0        -29.396
            203      -0.277612              0       -29.4018
            204      -0.277228              0       -29.4076
            205      -0.276847              0       -29.4134
            206      -0.277451              0       -29.4183
            207      -0.277073              0       -29.4235
            208      -0.276699              0       -29.4288
            209      -0.276329              0       -29.4339
            210      -0.276923              0       -29.4384
            211      -0.277512              0       -29.4429
            212      -0.278095              0       -29.4473
            213      -0.279621              0       -29.4515
            214      -0.281132              0       -29.4556
            215      -0.283568              0       -29.4599
            216      -0.284112              0        -29.465
            217      -0.284651              0         -29.47
            218      -0.285185              0        -29.475
            219      -0.285714              0       -29.4799
            220      -0.286239              0       -29.4848
            221      -0.287671              0       -29.4893
            222      -0.289091              0       -29.4941
            223      -0.290498              0       -29.4988
            224      -0.291892              0       -29.5035
            225      -0.293274              0       -29.5082
            226      -0.294643              0       -29.5128
            227      -0.295111              0        -29.517
            228      -0.295575              0       -29.5212
            229      -0.296035              0       -29.5253
            230      -0.296491              0       -29.5294
            231      -0.296943              0       -29.5335
            232      -0.296522              0       -29.5377
            233      -0.296104              0       -29.5419
            234       -0.29569              0       -29.5461
            235      -0.295279              0       -29.5502
            236      -0.294017              0       -29.5549
            237      -0.292766              0       -29.5596
            238      -0.291525              0       -29.5642
            239      -0.290295              0       -29.5688
            240      -0.289076              0       -29.5734
            241      -0.287866              0       -29.5779
            242      -0.286667              0       -29.5824
            243      -0.285477              0       -29.5868
            244      -0.284298              0       -29.5912
            245      -0.283128              0       -29.5956
            246      -0.281967              0       -29.5999
            247      -0.280816              0       -29.6042
            248      -0.279675              0       -29.6085
            249      -0.278543              0       -29.6127
            250      -0.278226              0       -29.6167
            251      -0.277912              0       -29.6207
            252        -0.2776              0       -29.6247
            253      -0.277291              0       -29.6286
            254      -0.276984              0       -29.6324
            255       -0.27747              0       -29.6355
            256      -0.277165              0       -29.6388
            257      -0.276863              0       -29.6426
            258      -0.276563              0       -29.6464
            259      -0.276265              0         -29.65
            260      -0.275969              0       -29.6536
            261      -0.276448              0       -29.6567
            262      -0.276923              0       -29.6597
            263      -0.277395              0       -29.6627
            264      -0.277099              0       -29.6659
            265      -0.276806              0        -29.669
            266      -0.276515              0       -29.6722
            267      -0.276981              0       -29.6752
            268      -0.276692              0       -29.6788
            269      -0.276404              0       -29.6824
            270      -0.276119              0        -29.686
            271      -0.275836              0       -29.6895
            272      -0.275556              0        -29.693
            273      -0.275277              0       -29.6965
            274         -0.275              0       -29.6999
            275      -0.275458              0       -29.7033
            276      -0.275182              0       -29.7067
            277      -0.274909              0       -29.7102
            278      -0.274638              0       -29.7135
            279      -0.274368              0       -29.7169
            280      -0.274101              0       -29.7203
            281      -0.273835              0       -29.7236
            282      -0.273571              0       -29.7269
            283      -0.272598              0       -29.7302
            284      -0.271631              0       -29.7334
            285      -0.270671              0       -29.7367
            286      -0.269718              0       -29.7399
            287      -0.268772              0       -29.7431
            288      -0.268531              0       -29.7458
            289      -0.268293              0       -29.7485
            290      -0.268056              0       -29.7512
            291      -0.267128              0       -29.7543
            292      -0.266207              0       -29.7574
            293      -0.265292              0       -29.7605
            294      -0.264384              0       -29.7636
            295      -0.263481              0       -29.7666
            296      -0.262585              0       -29.7696
            297      -0.261695              0       -29.7726
            298      -0.260811              0       -29.7756
            299      -0.259933              0       -29.7785
            300      -0.259732              0       -29.7811
            301      -0.259532              0       -29.7836
            302      -0.258667              0       -29.7865
            303      -0.258472              0       -29.7889
            304      -0.257616              0       -29.7917
            305      -0.256766              0       -29.7946
            306      -0.255921              0       -29.7974
            307      -0.255082              0       -29.8002
            308      -0.254248              0        -29.803
            309       -0.25342              0       -29.8058
            310      -0.253247              0       -29.8084
            311      -0.253074              0       -29.8111
            312      -0.252903              0       -29.8137
            313      -0.253376              0       -29.8163
            314      -0.253205              0       -29.8189
            315      -0.253035              0       -29.8214
            316      -0.252866              0        -29.824
            317      -0.252063              0       -29.8266
            318      -0.251266              0       -29.8292
            319      -0.250473              0       -29.8318
            320      -0.249686              0       -29.8344
            321      -0.248903              0        -29.837
            322      -0.248125              0       -29.8395
            323      -0.247352              0       -29.8421
            324      -0.246584              0       -29.8446
            325       -0.24582              0       -29.8471
