seed=1725278593
seed2=117
L=10
nstep=10000
tw=1
Jz=0
eps=5
alpha=0
Sz=0
pbc=0
type=1
beta=10
tau=0.001
Jxy=1
wc=10
ss=1
              1           -0.4              0       -15.3835
              2           -0.6              0       -16.3188
              3           -0.8              0       -17.3601
              4          -0.95              0       -18.3854
              5             -1              0       -19.3801
              6       -1.06667              0        -20.743
              7       -1.08571              0       -21.7116
              8           -1.1              0       -22.4379
              9       -1.11111              0       -23.1859
             10          -1.12              0       -23.7853
             11       -1.12727              0         -24.28
             12           -1.1              0       -24.9401
             13       -1.07692              0       -25.4986
             14       -1.04286              0       -25.9764
             15       -1.01333              0       -26.3862
             16             -1              0       -26.7586
             17      -0.952941              0       -27.1755
             18      -0.922222              0       -27.5455
             19      -0.894737              0       -27.8766
             20          -0.85              0       -28.1933
             21      -0.809524              0       -28.4798
             22      -0.781818              0       -28.7401
             23      -0.756522              0       -28.9777
             24      -0.733333              0       -29.1956
             25         -0.712              0        -29.396
             26      -0.692308              0        -29.581
             27      -0.674074              0       -29.7523
             28      -0.657143              0       -29.9113
             29      -0.641379              0       -30.0594
             30      -0.626667              0       -30.1976
             31      -0.612903              0       -30.3269
             32           -0.6              0       -30.4481
             33      -0.587879              0        -30.562
             34      -0.576471              0       -30.6692
             35      -0.565714              0       -30.7702
             36      -0.555556              0       -30.8657
             37      -0.545946              0        -30.956
             38      -0.536842              0       -31.0415
             39      -0.528205              0       -31.1226
             40          -0.52              0       -31.1997
             41      -0.507317              0       -31.2731
             42      -0.495238              0        -31.343
             43      -0.483721              0       -31.4097
             44      -0.472727              0       -31.4734
             45      -0.462222              0       -31.5342
             46      -0.456522              0       -31.5916
             47      -0.446809              0       -31.6473
             48        -0.4375              0       -31.7007
             49      -0.428571              0       -31.7519
             50          -0.42              0        -31.801
             51      -0.411765              0       -31.8483
             52      -0.403846              0       -31.8937
             53      -0.396226              0       -31.9374
             54      -0.388889              0       -31.9795
             55      -0.381818              0         -32.02
             56         -0.375              0       -32.0591
             57      -0.368421              0       -32.0969
             58      -0.362069              0       -32.1333
             59      -0.355932              0       -32.1685
             60          -0.35              0       -32.2025
             61      -0.344262              0       -32.2354
             62       -0.33871              0       -32.2673
             63      -0.333333              0       -32.2981
             64      -0.328125              0        -32.328
             65      -0.323077              0       -32.3569
             66      -0.321212              0       -32.3846
             67      -0.319403              0       -32.4114
             68      -0.317647              0       -32.4375
             69      -0.315942              0       -32.4627
             70      -0.314286              0       -32.4873
             71      -0.312676              0       -32.5112
             72      -0.308333              0       -32.5348
             73       -0.30411              0       -32.5577
             74      -0.305405              0       -32.5731
             75         -0.304              0       -32.5914
             76      -0.302632              0       -32.6093
             77      -0.301299              0       -32.6267
             78           -0.3              0       -32.6437
             79      -0.298734              0       -32.6602
             80        -0.2975              0       -32.6764
             81      -0.296296              0       -32.6913
             82      -0.295122              0       -32.7084
             83      -0.291566              0       -32.7265
             84      -0.288095              0       -32.7442
             85      -0.284706              0       -32.7614
             86      -0.281395              0       -32.7783
             87       -0.28046              0       -32.7941
             88      -0.279545              0       -32.8096
             89      -0.276404              0       -32.8253
             90      -0.273333              0       -32.8407
             91       -0.27033              0       -32.8558
             92      -0.267391              0       -32.8705
             93      -0.264516              0       -32.8849
             94      -0.261702              0        -32.899
             95      -0.258947              0       -32.9128
             96       -0.25625              0       -32.9263
             97      -0.253608              0       -32.9395
             98      -0.253061              0       -32.9525
             99      -0.252525              0       -32.9651
            100         -0.252              0       -32.9775
            101      -0.251485              0       -32.9897
            102       -0.24902              0       -33.0017
            103      -0.246602              0       -33.0134
            104      -0.244231              0       -33.0249
            105       -0.24381              0       -33.0323
            106      -0.245283              0       -33.0386
            107      -0.250467              0       -33.0435
            108      -0.255556              0       -33.0484
            109       -0.26055              0       -33.0532
            110      -0.263636              0       -33.0588
            111      -0.266667              0       -33.0643
            112      -0.269643              0       -33.0696
            113      -0.272566              0       -33.0749
            114      -0.275439              0       -33.0801
            115      -0.276522              0       -33.0883
            116      -0.275862              0       -33.0977
            117      -0.275214              0       -33.1069
            118      -0.274576              0        -33.116
            119       -0.27395              0       -33.1245
            120      -0.273333              0       -33.1328
            121      -0.272727              0        -33.141
            122      -0.270492              0       -33.1498
            123      -0.268293              0       -33.1584
            124      -0.266129              0       -33.1669
            125         -0.264              0       -33.1752
            126      -0.263492              0       -33.1819
            127      -0.262992              0       -33.1885
            128        -0.2625              0        -33.195
            129      -0.262016              0       -33.2013
            130      -0.261538              0       -33.2076
            131      -0.261069              0       -33.2138
            132      -0.260606              0       -33.2199
            133       -0.26015              0       -33.2259
            134      -0.259701              0       -33.2318
            135      -0.259259              0       -33.2376
            136      -0.258824              0       -33.2433
            137      -0.259854              0       -33.2485
            138       -0.25942              0       -33.2541
            139      -0.257554              0        -33.261
            140      -0.255714              0       -33.2677
            141      -0.253901              0       -33.2744
            142      -0.252113              0        -33.281
            143       -0.25035              0       -33.2875
            144      -0.248611              0       -33.2939
            145      -0.246897              0       -33.3002
            146      -0.245205              0       -33.3065
            147      -0.243537              0       -33.3126
            148      -0.241892              0       -33.3187
            149      -0.240268              0       -33.3246
            150      -0.238667              0       -33.3305
            151      -0.237086              0       -33.3364
            152      -0.235526              0       -33.3421
            153      -0.233987              0       -33.3478
            154      -0.233766              0       -33.3527
            155      -0.233548              0       -33.3575
            156      -0.233333              0       -33.3623
            157      -0.233121              0       -33.3671
            158      -0.232911              0       -33.3717
            159      -0.231447              0        -33.377
            160          -0.23              0       -33.3822
            161      -0.228571              0       -33.3873
            162       -0.22716              0       -33.3924
            163      -0.226994              0       -33.3958
            164      -0.226829              0       -33.3991
            165      -0.226667              0       -33.4024
            166      -0.226506              0       -33.4056
            167      -0.226347              0       -33.4088
            168       -0.22619              0       -33.4119
            169      -0.224852              0       -33.4167
            170      -0.223529              0       -33.4213
            171      -0.222222              0       -33.4259
            172       -0.22093              0       -33.4305
            173      -0.220809              0       -33.4341
            174       -0.22069              0       -33.4376
            175      -0.220571              0       -33.4411
            176      -0.219318              0       -33.4455
            177      -0.218079              0       -33.4498
            178      -0.216854              0       -33.4541
            179      -0.215642              0       -33.4583
            180      -0.214444              0       -33.4625
            181       -0.21326              0       -33.4666
            182      -0.212088              0       -33.4707
            183      -0.210929              0       -33.4747
            184       -0.21087              0       -33.4786
            185      -0.210811              0       -33.4824
            186      -0.210753              0       -33.4862
            187      -0.210695              0       -33.4899
            188      -0.210638              0       -33.4936
            189      -0.210582              0       -33.4973
            190      -0.209474              0        -33.501
            191      -0.208377              0       -33.5047
            192      -0.207292              0       -33.5084
            193      -0.206218              0        -33.512
            194      -0.207216              0       -33.5149
            195      -0.209231              0       -33.5165
            196      -0.211224              0       -33.5182
            197      -0.212183              0       -33.5188
            198      -0.213131              0       -33.5194
            199       -0.21407              0         -33.52
            200         -0.215              0       -33.5206
            201       -0.21592              0       -33.5212
            202      -0.215842              0       -33.5235
            203      -0.214778              0       -33.5269
            204      -0.213725              0       -33.5303
            205      -0.212683              0       -33.5336
            206       -0.21165              0       -33.5369
            207      -0.210628              0       -33.5401
            208      -0.209615              0       -33.5433
            209      -0.208612              0       -33.5465
            210      -0.207619              0       -33.5497
            211      -0.207583              0       -33.5527
            212      -0.206604              0       -33.5558
            213      -0.205634              0       -33.5589
            214      -0.204673              0       -33.5619
            215      -0.203721              0       -33.5649
            216      -0.202778              0       -33.5679
            217      -0.201843              0       -33.5709
            218      -0.201835              0       -33.5737
            219      -0.201826              0       -33.5766
            220      -0.201818              0       -33.5794
            221       -0.20181              0       -33.5822
            222      -0.201802              0        -33.585
            223      -0.201794              0       -33.5877
            224      -0.201786              0       -33.5905
            225      -0.202667              0        -33.593
            226       -0.20354              0       -33.5955
            227      -0.204405              0        -33.598
            228      -0.205263              0       -33.6004
            229       -0.20524              0       -33.6029
            230      -0.205217              0       -33.6054
            231      -0.205195              0       -33.6079
            232      -0.205172              0       -33.6104
            233       -0.20515              0       -33.6128
            234      -0.205983              0       -33.6147
            235      -0.206809              0       -33.6167
            236       -0.20678              0       -33.6187
            237      -0.206751              0       -33.6207
            238      -0.207563              0       -33.6218
            239      -0.208368              0       -33.6232
            240      -0.209167              0       -33.6246
            241      -0.209959              0        -33.626
            242      -0.210744              0       -33.6273
            243      -0.211523              0       -33.6287
            244      -0.211475              0       -33.6305
            245      -0.211429              0       -33.6323
            246      -0.211382              0       -33.6341
            247      -0.211336              0       -33.6354
            248      -0.212097              0       -33.6365
            249      -0.212851              0       -33.6373
            250        -0.2144              0       -33.6379
            251      -0.215139              0       -33.6395
            252      -0.215873              0       -33.6411
            253      -0.217391              0       -33.6417
            254      -0.218898              0       -33.6421
            255      -0.220392              0       -33.6426
            256      -0.221094              0       -33.6444
            257       -0.22179              0       -33.6464
            258      -0.223256              0       -33.6481
            259       -0.22471              0       -33.6499
            260      -0.226154              0       -33.6516
            261      -0.227586              0       -33.6533
            262      -0.229008              0       -33.6551
            263      -0.230418              0       -33.6568
            264      -0.231818              0       -33.6586
            265      -0.232453              0       -33.6605
            266      -0.233083              0       -33.6623
            267      -0.234457              0       -33.6635
            268      -0.235075              0       -33.6653
            269      -0.234944              0       -33.6673
            270      -0.234815              0       -33.6692
            271      -0.234686              0       -33.6696
            272      -0.234559              0       -33.6699
            273      -0.234432              0       -33.6715
            274      -0.233577              0       -33.6735
            275      -0.232727              0       -33.6755
            276      -0.231884              0       -33.6774
            277      -0.231769              0       -33.6792
            278      -0.231655              0        -33.681
            279      -0.231541              0       -33.6828
            280      -0.231429              0       -33.6845
            281      -0.231317              0       -33.6863
            282      -0.231206              0       -33.6878
            283      -0.231095              0       -33.6894
            284      -0.230986              0       -33.6909
            285      -0.230877              0       -33.6924
            286      -0.230769              0       -33.6939
            287      -0.230662              0       -33.6954
            288      -0.229861              0       -33.6972
            289      -0.229066              0        -33.699
            290      -0.228276              0       -33.7007
            291      -0.227491              0       -33.7025
            292      -0.226712              0       -33.7042
            293      -0.225939              0       -33.7059
            294       -0.22517              0       -33.7077
            295      -0.224407              0       -33.7094
            296      -0.223649              0        -33.711
            297      -0.222896              0       -33.7127
            298      -0.222819              0       -33.7143
            299      -0.222742              0       -33.7158
            300      -0.223333              0       -33.7161
            301       -0.22392              0       -33.7164
            302      -0.224503              0       -33.7166
            303      -0.224422              0       -33.7182
            304         -0.225              0       -33.7195
            305      -0.225574              0       -33.7208
            306       -0.22549              0       -33.7223
            307      -0.226059              0       -33.7236
            308      -0.226623              0       -33.7248
            309      -0.227184              0       -33.7261
            310      -0.228387              0       -33.7273
            311      -0.229582              0       -33.7285
            312      -0.230769              0       -33.7298
            313      -0.231949              0        -33.731
            314      -0.232484              0       -33.7324
            315      -0.233016              0       -33.7338
            316      -0.233544              0       -33.7352
            317      -0.234069              0       -33.7366
            318      -0.234591              0        -33.738
            319      -0.235737              0       -33.7388
            320      -0.236875              0       -33.7401
            321      -0.237383              0       -33.7415
            322      -0.237888              0       -33.7428
            323       -0.23839              0       -33.7441
            324      -0.238889              0       -33.7455
            325      -0.239385              0       -33.7468
