seed=1725239196
seed2=215
L=10
nstep=10000
tw=1
Jz=0
eps=5
alpha=0
Sz=0
pbc=0
type=1
beta=10
tau=0.001
Jxy=1
wc=10
ss=1
              1           -nan           -nan           -nan
              2           -nan           -nan           -nan
              3           -nan           -nan           -nan
              4           -nan           -nan           -nan
              5           -nan           -nan           -nan
              6           -nan           -nan           -nan
              7           -nan           -nan           -nan
              8           -nan           -nan           -nan
              9           -nan           -nan           -nan
             10           -nan           -nan           -nan
             11           -nan           -nan           -nan
             12           -1.2              0       -16.7303
             13           -1.2              0       -16.7303
             14       -1.13333              0       -17.0053
             15          -1.05              0       -17.1718
             16             -1              0       -17.2717
             17             -1              0       -17.4181
             18       -1.02857              0       -17.5145
             19          -1.05              0         -17.58
             20       -1.08889              0       -17.6253
             21          -1.16              0       -17.6689
             22       -1.21818              0       -17.6998
             23          -1.25              0       -17.7516
             24       -1.26154              0       -17.7988
             25       -1.27143              0       -17.8567
             26          -1.28              0       -17.9114
             27        -1.2875              0       -17.9491
             28       -1.30588              0       -17.9853
             29       -1.31111              0       -18.1014
             30       -1.30526              0       -18.3089
             31           -1.3              0       -18.4951
             32       -1.26667              0       -18.6928
             33       -1.22727              0        -18.873
             34       -1.18261              0       -19.0424
             35       -1.14167              0       -19.1976
             36         -1.104              0       -19.3405
             37       -1.06923              0       -19.4723
             38       -1.03704              0       -19.5944
             39             -1              0       -19.7231
             40      -0.965517              0       -19.8429
             41      -0.933333              0       -19.9547
             42      -0.903226              0       -20.0593
             43       -0.88125              0       -20.1572
             44      -0.866667              0        -20.246
             45      -0.858824              0       -20.3292
             46          -0.84              0        -20.411
             47      -0.827778              0        -20.484
             48      -0.810811              0       -20.5572
             49           -0.8              0       -20.6262
             50      -0.794872              0       -20.6897
             51          -0.79              0       -20.7499
             52      -0.780488              0       -20.8092
             53      -0.771429              0       -20.8656
             54       -0.75814              0       -20.9197
             55      -0.745455              0       -20.9714
             56      -0.728889              0       -21.0208
             57      -0.713043              0       -21.0682
             58      -0.702128              0        -21.113
             59      -0.695833              0       -21.1545
             60      -0.689796              0       -21.1938
             61         -0.688              0       -21.2304
             62      -0.686275              0       -21.2626
             63      -0.684615              0       -21.2936
             64      -0.683019              0       -21.3235
             65      -0.677778              0       -21.3532
             66      -0.676364              0       -21.3805
             67         -0.675              0       -21.4068
             68      -0.670175              0       -21.4336
             69      -0.662069              0       -21.4631
             70      -0.657627              0       -21.4909
             71      -0.653333              0       -21.5179
             72       -0.64918              0       -21.5439
             73      -0.648387              0       -21.5653
             74      -0.647619              0       -21.5861
             75      -0.646875              0       -21.6062
             76      -0.643077              0       -21.6265
             77      -0.639394              0       -21.6461
             78      -0.635821              0       -21.6651
             79      -0.632353              0       -21.6836
             80      -0.628986              0       -21.7015
             81      -0.625714              0       -21.7204
             82      -0.619718              0       -21.7393
             83      -0.613889              0       -21.7569
             84      -0.608219              0        -21.774
             85      -0.602703              0       -21.7906
             86           -0.6              0       -21.8052
             87      -0.597368              0        -21.822
             88      -0.594805              0       -21.8383
             89      -0.592308              0       -21.8542
             90      -0.589873              0       -21.8698
             91        -0.5875              0       -21.8849
             92      -0.580247              0       -21.9011
             93      -0.573171              0       -21.9169
             94      -0.566265              0       -21.9324
             95      -0.559524              0       -21.9474
             96      -0.552941              0       -21.9621
             97      -0.548837              0        -21.975
             98      -0.544828              0       -21.9875
             99      -0.540909              0       -21.9998
            100      -0.537079              0       -22.0118
            101      -0.533333              0       -22.0241
            102       -0.52967              0       -22.0362
            103      -0.526087              0        -22.048
            104      -0.524731              0       -22.0559
            105      -0.521277              0       -22.0672
            106      -0.517895              0       -22.0783
            107      -0.514583              0       -22.0892
            108       -0.51134              0       -22.0998
            109      -0.508163              0       -22.1103
            110      -0.505051              0       -22.1205
            111         -0.504              0       -22.1294
            112       -0.50297              0       -22.1379
            113      -0.501961              0       -22.1463
            114      -0.499029              0       -22.1552
            115      -0.496154              0        -22.164
            116      -0.493333              0       -22.1726
            117      -0.490566              0        -22.181
            118       -0.48785              0       -22.1893
            119      -0.485185              0       -22.1974
            120      -0.484404              0       -22.2043
            121      -0.483636              0        -22.211
            122      -0.482883              0       -22.2177
            123      -0.480357              0       -22.2256
            124      -0.476106              0       -22.2342
            125       -0.47193              0       -22.2426
            126      -0.467826              0       -22.2509
            127      -0.463793              0       -22.2591
            128      -0.459829              0       -22.2671
            129      -0.455932              0        -22.275
            130      -0.453782              0       -22.2823
            131      -0.453333              0       -22.2886
            132      -0.452893              0       -22.2949
            133      -0.452459              0        -22.301
            134      -0.450407              0       -22.3075
            135      -0.446774              0       -22.3146
            136        -0.4432              0       -22.3217
            137       -0.44127              0       -22.3284
            138       -0.43937              0       -22.3351
            139        -0.4375              0       -22.3416
            140      -0.437209              0       -22.3468
            141      -0.436923              0       -22.3519
            142      -0.435115              0       -22.3572
            143      -0.433333              0       -22.3623
            144      -0.431579              0       -22.3674
            145      -0.429851              0       -22.3724
            146      -0.428148              0       -22.3773
            147      -0.427941              0       -22.3818
            148      -0.427737              0       -22.3862
            149      -0.427536              0       -22.3906
            150      -0.428777              0       -22.3948
            151          -0.43              0        -22.399
            152      -0.431206              0       -22.4032
            153      -0.433803              0       -22.4069
            154      -0.436364              0       -22.4106
            155      -0.438889              0       -22.4142
            156          -0.44              0       -22.4188
            157      -0.441096              0       -22.4234
            158      -0.442177              0        -22.428
            159      -0.441892              0       -22.4328
            160      -0.441611              0       -22.4376
            161      -0.441333              0       -22.4423
            162       -0.44106              0       -22.4469
            163      -0.440789              0       -22.4515
            164      -0.440523              0       -22.4561
            165      -0.438961              0       -22.4609
            166       -0.43871              0       -22.4649
            167      -0.438462              0       -22.4689
            168      -0.438217              0       -22.4718
            169      -0.437975              0       -22.4747
            170      -0.436478              0       -22.4786
            171         -0.435              0       -22.4824
            172       -0.43354              0        -22.485
            173      -0.432099              0       -22.4875
            174      -0.430675              0       -22.4908
            175      -0.428049              0       -22.4951
            176      -0.426667              0       -22.4978
            177      -0.424096              0       -22.5021
            178      -0.421557              0       -22.5062
            179      -0.419048              0       -22.5103
            180      -0.416568              0       -22.5144
            181      -0.414118              0       -22.5184
            182      -0.414035              0       -22.5196
            183      -0.411628              0       -22.5235
            184      -0.410405              0       -22.5274
            185      -0.410345              0       -22.5311
            186      -0.411429              0       -22.5347
            187      -0.413636              0       -22.5365
            188      -0.415819              0       -22.5383
            189      -0.416854              0       -22.5408
            190      -0.417877              0       -22.5437
            191      -0.417778              0       -22.5467
            192      -0.418785              0       -22.5478
            193      -0.420879              0       -22.5474
            194      -0.422951              0       -22.5473
            195      -0.422826              0       -22.5495
            196      -0.422703              0       -22.5517
            197      -0.423656              0       -22.5539
            198      -0.424599              0       -22.5558
            199      -0.425532              0       -22.5577
            200      -0.426455              0       -22.5603
            201      -0.426316              0       -22.5631
            202      -0.427225              0       -22.5656
            203      -0.428125              0        -22.568
            204      -0.427979              0       -22.5708
            205      -0.427835              0       -22.5724
            206      -0.427692              0        -22.574
            207      -0.430612              0       -22.5733
            208      -0.433503              0       -22.5728
            209      -0.437374              0       -22.5717
            210      -0.438191              0       -22.5727
            211         -0.439              0       -22.5736
            212      -0.439801              0       -22.5745
            213      -0.439604              0       -22.5762
            214      -0.439409              0        -22.578
            215      -0.439216              0       -22.5797
            216      -0.439024              0       -22.5814
            217      -0.438835              0        -22.583
            218      -0.438647              0       -22.5847
            219      -0.438462              0       -22.5863
            220      -0.438278              0       -22.5879
            221      -0.438095              0       -22.5895
            222      -0.437915              0       -22.5911
            223      -0.436792              0       -22.5929
            224       -0.43662              0       -22.5945
            225      -0.436449              0       -22.5961
            226      -0.436279              0       -22.5987
            227      -0.436111              0       -22.6011
            228      -0.436866              0       -22.6031
            229      -0.437615              0       -22.6043
            230      -0.440183              0        -22.605
            231      -0.442727              0       -22.6057
            232      -0.444344              0       -22.6071
            233      -0.445946              0       -22.6085
            234      -0.447534              0         -22.61
            235      -0.448214              0       -22.6114
            236      -0.448889              0       -22.6129
            237      -0.448673              0       -22.6145
            238      -0.447577              0       -22.6169
            239      -0.445614              0       -22.6194
            240      -0.443668              0       -22.6219
            241      -0.443478              0       -22.6239
            242       -0.44329              0       -22.6259
            243      -0.442241              0       -22.6279
            244      -0.441202              0       -22.6299
            245      -0.439316              0       -22.6323
            246      -0.437447              0       -22.6348
            247      -0.435593              0       -22.6371
            248      -0.433755              0       -22.6395
            249      -0.431933              0       -22.6418
            250      -0.430962              0       -22.6438
            251      -0.430833              0       -22.6451
            252      -0.430705              0       -22.6471
            253      -0.430579              0       -22.6491
            254      -0.430453              0        -22.651
            255      -0.430328              0       -22.6527
            256       -0.43102              0       -22.6542
            257      -0.430894              0       -22.6558
            258      -0.430769              0       -22.6577
            259      -0.431452              0       -22.6597
            260      -0.432932              0       -22.6613
            261        -0.4344              0        -22.663
            262       -0.43506              0       -22.6647
            263      -0.435714              0       -22.6662
            264      -0.435573              0       -22.6682
            265      -0.435433              0       -22.6702
            266       -0.43451              0       -22.6722
            267      -0.433594              0       -22.6743
            268      -0.433463              0       -22.6757
            269      -0.432558              0       -22.6777
            270       -0.43166              0       -22.6796
            271          -0.43              0       -22.6816
            272      -0.428352              0       -22.6836
            273      -0.426718              0       -22.6856
            274      -0.425095              0       -22.6875
            275      -0.423485              0       -22.6894
            276      -0.422642              0        -22.691
            277      -0.421805              0       -22.6926
            278      -0.421723              0       -22.6936
            279      -0.421642              0       -22.6947
            280      -0.421561              0       -22.6957
            281      -0.420741              0        -22.697
            282      -0.419926              0       -22.6984
            283      -0.419118              0       -22.6997
            284      -0.418315              0        -22.701
            285      -0.417518              0       -22.7023
            286         -0.416              0       -22.7041
            287      -0.415217              0       -22.7051
            288      -0.415162              0        -22.706
            289      -0.415827              0       -22.7064
            290      -0.416487              0       -22.7068
            291      -0.415714              0       -22.7082
            292      -0.415658              0       -22.7092
            293      -0.415603              0       -22.7103
            294      -0.415548              0       -22.7113
            295      -0.414789              0       -22.7127
            296      -0.414035              0       -22.7143
            297      -0.413986              0       -22.7158
            298      -0.414634              0       -22.7165
            299      -0.414583              0        -22.718
            300      -0.414533              0       -22.7195
            301      -0.414483              0       -22.7209
            302      -0.413746              0       -22.7225
            303      -0.413014              0       -22.7242
            304      -0.412287              0       -22.7246
            305      -0.411565              0        -22.725
            306      -0.411525              0       -22.7252
            307      -0.410811              0       -22.7267
            308      -0.410101              0       -22.7282
            309      -0.410067              0       -22.7296
            310      -0.410033              0        -22.731
            311          -0.41              0       -22.7324
            312      -0.409967              0       -22.7338
            313      -0.409272              0       -22.7353
            314      -0.408581              0       -22.7367
            315      -0.407895              0       -22.7381
            316      -0.407213              0       -22.7396
            317      -0.406536              0        -22.741
            318      -0.405863              0       -22.7424
            319      -0.405195              0       -22.7438
            320      -0.404531              0       -22.7452
            321      -0.404516              0       -22.7461
            322      -0.404502              0        -22.747
            323      -0.404487              0       -22.7479
            324      -0.405751              0       -22.7487
            325      -0.406369              0       -22.7496
