seed=1725239196
seed2=230
L=10
nstep=10000
tw=1
Jz=0
eps=5
alpha=0
Sz=0
pbc=0
type=1
beta=10
tau=0.001
Jxy=1
wc=10
ss=1
              1           -0.8              0       -16.2047
              2           -0.9              0       -17.0344
              3             -1              0       -17.4029
              4          -1.05              0       -17.7012
              5          -1.08              0        -17.884
              6           -1.1              0       -18.0059
              7       -1.11429              0       -18.3351
              8         -1.125              0       -18.6341
              9       -1.13333              0       -18.8888
             10          -1.16              0       -19.1077
             11       -1.16364              0       -19.3504
             12       -1.13333              0       -19.6849
             13       -1.12308              0       -19.9562
             14       -1.11429              0       -20.2013
             15       -1.10667              0       -20.4194
             16        -1.0875              0       -20.6124
             17       -1.07059              0       -20.7855
             18       -1.05556              0       -20.9394
             19       -1.04211              0       -21.0771
             20          -1.03              0       -21.2019
             21       -1.01905              0       -21.3147
             22             -1              0       -21.4267
             23      -0.991304              0       -21.5213
             24         -0.975              0       -21.6094
             25         -0.976              0        -21.688
             26      -0.976923              0       -21.7605
             27       -0.97037              0       -21.8386
             28      -0.964286              0       -21.9114
             29      -0.958621              0       -21.9792
             30      -0.953333              0       -22.0358
             31      -0.954839              0       -22.0875
             32       -0.94375              0       -22.1433
             33      -0.939394              0       -22.1928
             34      -0.923529              0       -22.2438
             35      -0.908571              0       -22.2919
             36      -0.894444              0       -22.3374
             37      -0.881081              0       -22.3805
             38      -0.873684              0       -22.4199
             39      -0.861538              0       -22.4618
             40          -0.85              0       -22.5016
             41      -0.834146              0       -22.5409
             42      -0.819048              0       -22.5782
             43      -0.804651              0       -22.6139
             44      -0.790909              0        -22.648
             45      -0.777778              0       -22.6806
             46      -0.765217              0       -22.7117
             47      -0.753191              0       -22.7415
             48      -0.741667              0       -22.7701
             49      -0.730612              0       -22.7975
             50          -0.72              0       -22.8239
             51      -0.709804              0       -22.8492
             52           -0.7              0       -22.8736
             53      -0.690566              0       -22.8971
             54      -0.677778              0       -22.9202
             55      -0.669091              0       -22.9419
             56      -0.660714              0       -22.9587
             57      -0.652632              0       -22.9748
             58      -0.644828              0       -22.9904
             59      -0.637288              0       -23.0055
             60          -0.63              0       -23.0201
             61      -0.622951              0       -23.0342
             62      -0.619355              0       -23.0473
             63      -0.612698              0       -23.0642
             64       -0.60625              0       -23.0805
             65           -0.6              0       -23.0963
             66      -0.593939              0       -23.1116
             67       -0.58806              0       -23.1265
             68      -0.582353              0       -23.1412
             69      -0.573913              0       -23.1557
             70      -0.565714              0       -23.1699
             71      -0.557746              0       -23.1836
             72          -0.55              0       -23.1969
             73      -0.545205              0       -23.2085
             74      -0.543243              0       -23.2198
             75      -0.538667              0       -23.2307
             76      -0.534211              0       -23.2414
             77      -0.527273              0       -23.2531
             78      -0.520513              0       -23.2646
             79      -0.513924              0       -23.2757
             80      -0.513924              0       -23.2757
             81      -0.513924              0       -23.2757
             82      -0.513924              0       -23.2757
             83      -0.513924              0       -23.2757
             84      -0.513924              0       -23.2757
             85      -0.513924              0       -23.2757
             86      -0.513924              0       -23.2757
             87      -0.513924              0       -23.2757
             88      -0.513924              0       -23.2757
             89      -0.513924              0       -23.2757
             90      -0.513924              0       -23.2757
             91      -0.513924              0       -23.2757
             92      -0.513924              0       -23.2757
             93      -0.513924              0       -23.2757
             94      -0.513924              0       -23.2757
             95      -0.513924              0       -23.2757
             96      -0.513924              0       -23.2757
             97      -0.513924              0       -23.2757
             98      -0.513924              0       -23.2757
             99      -0.513924              0       -23.2757
            100      -0.513924              0       -23.2757
            101      -0.513924              0       -23.2757
            102      -0.513924              0       -23.2757
            103      -0.513924              0       -23.2757
            104      -0.513924              0       -23.2757
            105      -0.513924              0       -23.2757
            106      -0.513924              0       -23.2757
            107      -0.513924              0       -23.2757
            108      -0.513924              0       -23.2757
            109      -0.513924              0       -23.2757
            110      -0.513924              0       -23.2757
            111      -0.513924              0       -23.2757
            112      -0.513924              0       -23.2757
            113      -0.513924              0       -23.2757
            114      -0.513924              0       -23.2757
            115      -0.513924              0       -23.2757
            116      -0.513924              0       -23.2757
            117      -0.513924              0       -23.2757
            118      -0.513924              0       -23.2757
            119      -0.513924              0       -23.2757
            120      -0.513924              0       -23.2757
            121      -0.513924              0       -23.2757
            122      -0.513924              0       -23.2757
            123      -0.513924              0       -23.2757
            124      -0.513924              0       -23.2757
            125      -0.513924              0       -23.2757
            126      -0.513924              0       -23.2757
            127      -0.513924              0       -23.2757
            128      -0.513924              0       -23.2757
            129      -0.513924              0       -23.2757
            130      -0.513924              0       -23.2757
            131      -0.513924              0       -23.2757
            132      -0.513924              0       -23.2757
            133      -0.513924              0       -23.2757
            134      -0.513924              0       -23.2757
            135      -0.513924              0       -23.2757
            136      -0.513924              0       -23.2757
            137      -0.513924              0       -23.2757
            138      -0.513924              0       -23.2757
            139      -0.513924              0       -23.2757
            140      -0.513924              0       -23.2757
            141      -0.513924              0       -23.2757
            142      -0.513924              0       -23.2757
            143      -0.513924              0       -23.2757
            144      -0.513924              0       -23.2757
            145      -0.513924              0       -23.2757
            146      -0.513924              0       -23.2757
            147      -0.513924              0       -23.2757
            148      -0.513924              0       -23.2757
            149      -0.513924              0       -23.2757
            150      -0.513924              0       -23.2757
            151      -0.513924              0       -23.2757
            152      -0.513924              0       -23.2757
            153      -0.513924              0       -23.2757
            154      -0.513924              0       -23.2757
            155      -0.513924              0       -23.2757
            156      -0.513924              0       -23.2757
            157      -0.513924              0       -23.2757
            158      -0.513924              0       -23.2757
            159      -0.513924              0       -23.2757
            160      -0.513924              0       -23.2757
            161      -0.513924              0       -23.2757
            162      -0.513924              0       -23.2757
            163      -0.513924              0       -23.2757
            164      -0.513924              0       -23.2757
            165      -0.513924              0       -23.2757
            166      -0.513924              0       -23.2757
            167      -0.513924              0       -23.2757
            168      -0.513924              0       -23.2757
            169      -0.513924              0       -23.2757
            170      -0.513924              0       -23.2757
            171      -0.513924              0       -23.2757
            172      -0.513924              0       -23.2757
            173      -0.513924              0       -23.2757
            174      -0.513924              0       -23.2757
            175      -0.513924              0       -23.2757
            176      -0.513924              0       -23.2757
            177      -0.513924              0       -23.2757
            178      -0.513924              0       -23.2757
            179      -0.513924              0       -23.2757
            180      -0.513924              0       -23.2757
            181      -0.513924              0       -23.2757
            182      -0.513924              0       -23.2757
            183      -0.513924              0       -23.2757
            184      -0.513924              0       -23.2757
            185      -0.513924              0       -23.2757
            186      -0.513924              0       -23.2757
            187      -0.513924              0       -23.2757
            188      -0.513924              0       -23.2757
            189      -0.513924              0       -23.2757
            190      -0.513924              0       -23.2757
            191      -0.513924              0       -23.2757
            192      -0.513924              0       -23.2757
            193      -0.513924              0       -23.2757
            194      -0.513924              0       -23.2757
            195      -0.513924              0       -23.2757
            196      -0.513924              0       -23.2757
            197      -0.513924              0       -23.2757
            198      -0.513924              0       -23.2757
            199      -0.513924              0       -23.2757
            200      -0.513924              0       -23.2757
            201      -0.513924              0       -23.2757
            202      -0.513924              0       -23.2757
            203      -0.513924              0       -23.2757
            204      -0.513924              0       -23.2757
            205      -0.513924              0       -23.2757
            206      -0.513924              0       -23.2757
            207      -0.513924              0       -23.2757
            208      -0.513924              0       -23.2757
            209      -0.513924              0       -23.2757
            210      -0.513924              0       -23.2757
            211      -0.513924              0       -23.2757
            212      -0.513924              0       -23.2757
            213      -0.513924              0       -23.2757
            214      -0.513924              0       -23.2757
            215      -0.513924              0       -23.2757
            216      -0.513924              0       -23.2757
            217      -0.513924              0       -23.2757
            218      -0.513924              0       -23.2757
            219      -0.513924              0       -23.2757
            220      -0.513924              0       -23.2757
            221      -0.513924              0       -23.2757
            222      -0.513924              0       -23.2757
            223      -0.513924              0       -23.2757
            224      -0.513924              0       -23.2757
            225      -0.513924              0       -23.2757
            226      -0.513924              0       -23.2757
            227      -0.513924              0       -23.2757
            228      -0.513924              0       -23.2757
            229      -0.513924              0       -23.2757
            230      -0.513924              0       -23.2757
            231      -0.513924              0       -23.2757
            232      -0.513924              0       -23.2757
            233      -0.513924              0       -23.2757
            234      -0.513924              0       -23.2757
            235      -0.513924              0       -23.2757
            236      -0.513924              0       -23.2757
            237      -0.513924              0       -23.2757
            238      -0.513924              0       -23.2757
            239      -0.513924              0       -23.2757
            240      -0.513924              0       -23.2757
            241      -0.513924              0       -23.2757
            242      -0.513924              0       -23.2757
            243      -0.513924              0       -23.2757
            244      -0.513924              0       -23.2757
            245      -0.513924              0       -23.2757
            246      -0.513924              0       -23.2757
            247      -0.513924              0       -23.2757
            248      -0.513924              0       -23.2757
            249      -0.513924              0       -23.2757
            250      -0.513924              0       -23.2757
            251      -0.513924              0       -23.2757
            252      -0.513924              0       -23.2757
            253      -0.513924              0       -23.2757
            254      -0.513924              0       -23.2757
            255      -0.513924              0       -23.2757
            256      -0.513924              0       -23.2757
            257      -0.513924              0       -23.2757
            258      -0.513924              0       -23.2757
            259      -0.513924              0       -23.2757
            260      -0.513924              0       -23.2757
            261      -0.513924              0       -23.2757
            262      -0.513924              0       -23.2757
            263      -0.513924              0       -23.2757
            264      -0.513924              0       -23.2757
            265      -0.513924              0       -23.2757
            266      -0.513924              0       -23.2757
            267      -0.513924              0       -23.2757
            268      -0.513924              0       -23.2757
            269      -0.513924              0       -23.2757
            270      -0.513924              0       -23.2757
            271      -0.513924              0       -23.2757
            272      -0.513924              0       -23.2757
            273      -0.513924              0       -23.2757
            274      -0.513924              0       -23.2757
            275      -0.513924              0       -23.2757
            276      -0.513924              0       -23.2757
            277      -0.513924              0       -23.2757
            278      -0.513924              0       -23.2757
            279      -0.513924              0       -23.2757
            280      -0.513924              0       -23.2757
            281      -0.513924              0       -23.2757
            282      -0.513924              0       -23.2757
            283      -0.513924              0       -23.2757
            284      -0.513924              0       -23.2757
            285      -0.513924              0       -23.2757
            286      -0.513924              0       -23.2757
            287      -0.513924              0       -23.2757
            288      -0.513924              0       -23.2757
            289      -0.513924              0       -23.2757
            290      -0.513924              0       -23.2757
            291      -0.513924              0       -23.2757
            292      -0.513924              0       -23.2757
            293      -0.513924              0       -23.2757
            294      -0.513924              0       -23.2757
            295      -0.513924              0       -23.2757
            296      -0.513924              0       -23.2757
            297      -0.513924              0       -23.2757
            298      -0.513924              0       -23.2757
            299      -0.513924              0       -23.2757
            300      -0.513924              0       -23.2757
            301      -0.513924              0       -23.2757
            302      -0.513924              0       -23.2757
            303      -0.513924              0       -23.2757
            304      -0.513924              0       -23.2757
            305      -0.513924              0       -23.2757
            306      -0.513924              0       -23.2757
            307      -0.513924              0       -23.2757
            308      -0.513924              0       -23.2757
            309      -0.513924              0       -23.2757
            310      -0.513924              0       -23.2757
            311      -0.513924              0       -23.2757
            312      -0.513924              0       -23.2757
            313      -0.513924              0       -23.2757
            314      -0.513924              0       -23.2757
            315      -0.513924              0       -23.2757
            316      -0.513924              0       -23.2757
            317      -0.513924              0       -23.2757
            318      -0.513924              0       -23.2757
            319      -0.513924              0       -23.2757
            320      -0.513924              0       -23.2757
            321      -0.513924              0       -23.2757
            322      -0.513924              0       -23.2757
            323      -0.513924              0       -23.2757
            324      -0.513924              0       -23.2757
            325      -0.513924              0       -23.2757
