seed=1725278593
seed2=420
L=10
nstep=10000
tw=1
Jz=0
eps=5
alpha=0
Sz=0
pbc=0
type=1
beta=10
tau=0.001
Jxy=1
wc=10
ss=1
              1           -0.4              0       -14.1394
              2           -0.6              0       -14.7099
              3      -0.733333              0       -15.6746
              4          -0.85              0        -16.204
              5          -0.88              0       -16.5281
              6           -0.9              0       -16.7441
              7      -0.971429              0       -16.9434
              8          -1.05              0       -17.1244
              9       -1.04444              0       -17.3345
             10          -1.04              0       -17.5192
             11             -1              0       -17.7863
             12          -0.95              0       -18.0134
             13      -0.923077              0       -18.1916
             14           -0.9              0       -18.3558
             15          -0.88              0       -18.4981
             16        -0.8625              0       -18.6226
             17      -0.847059              0       -18.7325
             18      -0.844444              0       -18.8274
             19      -0.842105              0       -18.9181
             20          -0.84              0       -19.0033
             21          -0.84              0       -19.0033
             22          -0.84              0       -19.0033
             23          -0.84              0       -19.0033
             24          -0.84              0       -19.0033
             25          -0.84              0       -19.0033
             26          -0.84              0       -19.0033
             27          -0.84              0       -19.0033
             28          -0.84              0       -19.0033
             29          -0.84              0       -19.0033
             30          -0.84              0       -19.0033
             31          -0.84              0       -19.0033
             32          -0.84              0       -19.0033
             33          -0.84              0       -19.0033
             34          -0.84              0       -19.0033
             35          -0.84              0       -19.0033
             36          -0.84              0       -19.0033
             37          -0.84              0       -19.0033
             38          -0.84              0       -19.0033
             39          -0.84              0       -19.0033
             40          -0.84              0       -19.0033
             41          -0.84              0       -19.0033
             42          -0.84              0       -19.0033
             43          -0.84              0       -19.0033
             44          -0.84              0       -19.0033
             45          -0.84              0       -19.0033
             46          -0.84              0       -19.0033
             47          -0.84              0       -19.0033
             48          -0.84              0       -19.0033
             49          -0.84              0       -19.0033
             50          -0.84              0       -19.0033
             51          -0.84              0       -19.0033
             52          -0.84              0       -19.0033
             53          -0.84              0       -19.0033
             54          -0.84              0       -19.0033
             55          -0.84              0       -19.0033
             56          -0.84              0       -19.0033
             57          -0.84              0       -19.0033
             58          -0.84              0       -19.0033
             59          -0.84              0       -19.0033
             60          -0.84              0       -19.0033
             61          -0.84              0       -19.0033
             62          -0.84              0       -19.0033
             63          -0.84              0       -19.0033
             64          -0.84              0       -19.0033
             65          -0.84              0       -19.0033
             66          -0.84              0       -19.0033
             67          -0.84              0       -19.0033
             68          -0.84              0       -19.0033
             69          -0.84              0       -19.0033
             70          -0.84              0       -19.0033
             71          -0.84              0       -19.0033
             72          -0.84              0       -19.0033
             73          -0.84              0       -19.0033
             74          -0.84              0       -19.0033
             75          -0.84              0       -19.0033
             76          -0.84              0       -19.0033
             77          -0.84              0       -19.0033
             78          -0.84              0       -19.0033
             79          -0.84              0       -19.0033
             80          -0.84              0       -19.0033
             81          -0.84              0       -19.0033
             82          -0.84              0       -19.0033
             83          -0.84              0       -19.0033
             84          -0.84              0       -19.0033
             85          -0.84              0       -19.0033
             86          -0.84              0       -19.0033
             87          -0.84              0       -19.0033
             88          -0.84              0       -19.0033
             89          -0.84              0       -19.0033
             90          -0.84              0       -19.0033
             91          -0.84              0       -19.0033
             92          -0.84              0       -19.0033
             93          -0.84              0       -19.0033
             94          -0.84              0       -19.0033
             95          -0.84              0       -19.0033
             96          -0.84              0       -19.0033
             97          -0.84              0       -19.0033
             98          -0.84              0       -19.0033
             99          -0.84              0       -19.0033
            100          -0.84              0       -19.0033
            101          -0.84              0       -19.0033
            102          -0.84              0       -19.0033
            103          -0.84              0       -19.0033
            104          -0.84              0       -19.0033
            105          -0.84              0       -19.0033
            106          -0.84              0       -19.0033
            107          -0.84              0       -19.0033
            108          -0.84              0       -19.0033
            109          -0.84              0       -19.0033
            110          -0.84              0       -19.0033
            111          -0.84              0       -19.0033
            112          -0.84              0       -19.0033
            113          -0.84              0       -19.0033
            114          -0.84              0       -19.0033
            115          -0.84              0       -19.0033
            116          -0.84              0       -19.0033
            117          -0.84              0       -19.0033
            118          -0.84              0       -19.0033
            119          -0.84              0       -19.0033
            120          -0.84              0       -19.0033
            121          -0.84              0       -19.0033
            122          -0.84              0       -19.0033
            123          -0.84              0       -19.0033
            124          -0.84              0       -19.0033
            125          -0.84              0       -19.0033
            126          -0.84              0       -19.0033
            127          -0.84              0       -19.0033
            128          -0.84              0       -19.0033
            129          -0.84              0       -19.0033
            130          -0.84              0       -19.0033
            131          -0.84              0       -19.0033
            132          -0.84              0       -19.0033
            133          -0.84              0       -19.0033
            134          -0.84              0       -19.0033
            135          -0.84              0       -19.0033
            136          -0.84              0       -19.0033
            137          -0.84              0       -19.0033
            138          -0.84              0       -19.0033
            139          -0.84              0       -19.0033
            140          -0.84              0       -19.0033
            141          -0.84              0       -19.0033
            142          -0.84              0       -19.0033
            143          -0.84              0       -19.0033
            144          -0.84              0       -19.0033
            145          -0.84              0       -19.0033
            146          -0.84              0       -19.0033
            147          -0.84              0       -19.0033
            148          -0.84              0       -19.0033
            149          -0.84              0       -19.0033
            150          -0.84              0       -19.0033
            151          -0.84              0       -19.0033
            152          -0.84              0       -19.0033
            153          -0.84              0       -19.0033
            154          -0.84              0       -19.0033
            155          -0.84              0       -19.0033
            156          -0.84              0       -19.0033
            157          -0.84              0       -19.0033
            158          -0.84              0       -19.0033
            159          -0.84              0       -19.0033
            160          -0.84              0       -19.0033
            161          -0.84              0       -19.0033
            162          -0.84              0       -19.0033
            163          -0.84              0       -19.0033
            164          -0.84              0       -19.0033
            165          -0.84              0       -19.0033
            166          -0.84              0       -19.0033
            167          -0.84              0       -19.0033
            168          -0.84              0       -19.0033
            169          -0.84              0       -19.0033
            170          -0.84              0       -19.0033
            171          -0.84              0       -19.0033
            172          -0.84              0       -19.0033
            173          -0.84              0       -19.0033
            174          -0.84              0       -19.0033
            175          -0.84              0       -19.0033
            176          -0.84              0       -19.0033
            177          -0.84              0       -19.0033
            178          -0.84              0       -19.0033
            179          -0.84              0       -19.0033
            180          -0.84              0       -19.0033
            181          -0.84              0       -19.0033
            182          -0.84              0       -19.0033
            183          -0.84              0       -19.0033
            184          -0.84              0       -19.0033
            185          -0.84              0       -19.0033
            186          -0.84              0       -19.0033
            187          -0.84              0       -19.0033
            188          -0.84              0       -19.0033
            189          -0.84              0       -19.0033
            190          -0.84              0       -19.0033
            191          -0.84              0       -19.0033
            192          -0.84              0       -19.0033
            193          -0.84              0       -19.0033
            194          -0.84              0       -19.0033
            195          -0.84              0       -19.0033
            196          -0.84              0       -19.0033
            197          -0.84              0       -19.0033
            198          -0.84              0       -19.0033
            199          -0.84              0       -19.0033
            200          -0.84              0       -19.0033
            201          -0.84              0       -19.0033
            202          -0.84              0       -19.0033
            203          -0.84              0       -19.0033
            204          -0.84              0       -19.0033
            205          -0.84              0       -19.0033
            206          -0.84              0       -19.0033
            207          -0.84              0       -19.0033
            208          -0.84              0       -19.0033
            209          -0.84              0       -19.0033
            210          -0.84              0       -19.0033
            211          -0.84              0       -19.0033
            212          -0.84              0       -19.0033
            213          -0.84              0       -19.0033
            214          -0.84              0       -19.0033
            215          -0.84              0       -19.0033
            216          -0.84              0       -19.0033
            217          -0.84              0       -19.0033
            218          -0.84              0       -19.0033
            219          -0.84              0       -19.0033
            220          -0.84              0       -19.0033
            221          -0.84              0       -19.0033
            222          -0.84              0       -19.0033
            223          -0.84              0       -19.0033
            224          -0.84              0       -19.0033
            225          -0.84              0       -19.0033
            226          -0.84              0       -19.0033
            227          -0.84              0       -19.0033
            228          -0.84              0       -19.0033
            229          -0.84              0       -19.0033
            230          -0.84              0       -19.0033
            231          -0.84              0       -19.0033
            232          -0.84              0       -19.0033
            233          -0.84              0       -19.0033
            234          -0.84              0       -19.0033
            235          -0.84              0       -19.0033
            236          -0.84              0       -19.0033
            237          -0.84              0       -19.0033
            238          -0.84              0       -19.0033
            239          -0.84              0       -19.0033
            240          -0.84              0       -19.0033
            241          -0.84              0       -19.0033
            242          -0.84              0       -19.0033
            243          -0.84              0       -19.0033
            244          -0.84              0       -19.0033
            245          -0.84              0       -19.0033
            246          -0.84              0       -19.0033
            247          -0.84              0       -19.0033
            248          -0.84              0       -19.0033
            249          -0.84              0       -19.0033
            250          -0.84              0       -19.0033
            251          -0.84              0       -19.0033
            252          -0.84              0       -19.0033
            253          -0.84              0       -19.0033
            254          -0.84              0       -19.0033
            255          -0.84              0       -19.0033
            256          -0.84              0       -19.0033
            257          -0.84              0       -19.0033
            258          -0.84              0       -19.0033
            259          -0.84              0       -19.0033
            260          -0.84              0       -19.0033
            261          -0.84              0       -19.0033
            262          -0.84              0       -19.0033
            263          -0.84              0       -19.0033
            264          -0.84              0       -19.0033
            265          -0.84              0       -19.0033
            266          -0.84              0       -19.0033
            267          -0.84              0       -19.0033
            268          -0.84              0       -19.0033
            269          -0.84              0       -19.0033
            270          -0.84              0       -19.0033
            271          -0.84              0       -19.0033
            272          -0.84              0       -19.0033
            273          -0.84              0       -19.0033
            274          -0.84              0       -19.0033
            275          -0.84              0       -19.0033
            276          -0.84              0       -19.0033
            277          -0.84              0       -19.0033
            278          -0.84              0       -19.0033
            279          -0.84              0       -19.0033
            280          -0.84              0       -19.0033
            281          -0.84              0       -19.0033
            282          -0.84              0       -19.0033
            283          -0.84              0       -19.0033
            284          -0.84              0       -19.0033
            285          -0.84              0       -19.0033
            286          -0.84              0       -19.0033
            287          -0.84              0       -19.0033
            288          -0.84              0       -19.0033
            289          -0.84              0       -19.0033
            290          -0.84              0       -19.0033
            291          -0.84              0       -19.0033
            292          -0.84              0       -19.0033
            293          -0.84              0       -19.0033
            294          -0.84              0       -19.0033
            295          -0.84              0       -19.0033
            296          -0.84              0       -19.0033
            297          -0.84              0       -19.0033
            298          -0.84              0       -19.0033
            299          -0.84              0       -19.0033
            300          -0.84              0       -19.0033
            301          -0.84              0       -19.0033
            302          -0.84              0       -19.0033
            303          -0.84              0       -19.0033
            304          -0.84              0       -19.0033
            305          -0.84              0       -19.0033
            306          -0.84              0       -19.0033
            307          -0.84              0       -19.0033
            308          -0.84              0       -19.0033
            309          -0.84              0       -19.0033
            310          -0.84              0       -19.0033
            311          -0.84              0       -19.0033
            312          -0.84              0       -19.0033
            313          -0.84              0       -19.0033
            314          -0.84              0       -19.0033
            315          -0.84              0       -19.0033
            316          -0.84              0       -19.0033
            317          -0.84              0       -19.0033
            318          -0.84              0       -19.0033
            319          -0.84              0       -19.0033
            320          -0.84              0       -19.0033
            321          -0.84              0       -19.0033
            322          -0.84              0       -19.0033
            323          -0.84              0       -19.0033
            324          -0.84              0       -19.0033
            325          -0.84              0       -19.0033
