seed=1725239196
seed2=130
L=10
nstep=10000
tw=1
Jz=0
eps=5
alpha=0
Sz=0
pbc=0
type=1
beta=10
tau=0.001
Jxy=1
wc=10
ss=1
              1           -0.4              0       -3.24614
              2           -0.9              0       -6.54499
              3       -1.13333              0       -7.90959
              4          -1.35              0        -9.7992
              5           -1.4              0       -11.1536
              6       -1.43333              0       -12.1489
              7       -1.45714              0       -12.8599
              8           -1.5              0       -13.4789
              9       -1.55556              0       -13.9478
             10          -1.66              0       -14.2519
             11       -1.72727              0       -14.4885
             12          -1.75              0       -14.7009
             13       -1.78462              0       -15.0658
             14       -1.81429              0       -15.3996
             15          -1.84              0       -15.6949
             16          -1.84              0       -15.6949
             17          -1.84              0       -15.6949
             18          -1.84              0       -15.6949
             19          -1.84              0       -15.6949
             20          -1.84              0       -15.6949
             21          -1.84              0       -15.6949
             22          -1.84              0       -15.6949
             23          -1.84              0       -15.6949
             24          -1.84              0       -15.6949
             25          -1.84              0       -15.6949
             26          -1.84              0       -15.6949
             27          -1.84              0       -15.6949
             28          -1.84              0       -15.6949
             29          -1.84              0       -15.6949
             30          -1.84              0       -15.6949
             31          -1.84              0       -15.6949
             32          -1.84              0       -15.6949
             33          -1.84              0       -15.6949
             34          -1.84              0       -15.6949
             35          -1.84              0       -15.6949
             36          -1.84              0       -15.6949
             37          -1.84              0       -15.6949
             38          -1.84              0       -15.6949
             39          -1.84              0       -15.6949
             40          -1.84              0       -15.6949
             41          -1.84              0       -15.6949
             42          -1.84              0       -15.6949
             43          -1.84              0       -15.6949
             44          -1.84              0       -15.6949
             45          -1.84              0       -15.6949
             46          -1.84              0       -15.6949
             47          -1.84              0       -15.6949
             48          -1.84              0       -15.6949
             49          -1.84              0       -15.6949
             50          -1.84              0       -15.6949
             51          -1.84              0       -15.6949
             52          -1.84              0       -15.6949
             53          -1.84              0       -15.6949
             54          -1.84              0       -15.6949
             55          -1.84              0       -15.6949
             56          -1.84              0       -15.6949
             57          -1.84              0       -15.6949
             58          -1.84              0       -15.6949
             59          -1.84              0       -15.6949
             60          -1.84              0       -15.6949
             61          -1.84              0       -15.6949
             62          -1.84              0       -15.6949
             63          -1.84              0       -15.6949
             64          -1.84              0       -15.6949
             65          -1.84              0       -15.6949
             66          -1.84              0       -15.6949
             67          -1.84              0       -15.6949
             68          -1.84              0       -15.6949
             69          -1.84              0       -15.6949
             70          -1.84              0       -15.6949
             71          -1.84              0       -15.6949
             72          -1.84              0       -15.6949
             73          -1.84              0       -15.6949
             74          -1.84              0       -15.6949
             75          -1.84              0       -15.6949
             76          -1.84              0       -15.6949
             77          -1.84              0       -15.6949
             78          -1.84              0       -15.6949
             79          -1.84              0       -15.6949
             80          -1.84              0       -15.6949
             81          -1.84              0       -15.6949
             82          -1.84              0       -15.6949
             83          -1.84              0       -15.6949
             84          -1.84              0       -15.6949
             85          -1.84              0       -15.6949
             86          -1.84              0       -15.6949
             87          -1.84              0       -15.6949
             88          -1.84              0       -15.6949
             89          -1.84              0       -15.6949
             90          -1.84              0       -15.6949
             91          -1.84              0       -15.6949
             92          -1.84              0       -15.6949
             93          -1.84              0       -15.6949
             94          -1.84              0       -15.6949
             95          -1.84              0       -15.6949
             96          -1.84              0       -15.6949
             97          -1.84              0       -15.6949
             98          -1.84              0       -15.6949
             99          -1.84              0       -15.6949
            100          -1.84              0       -15.6949
            101          -1.84              0       -15.6949
            102          -1.84              0       -15.6949
            103          -1.84              0       -15.6949
            104          -1.84              0       -15.6949
            105          -1.84              0       -15.6949
            106          -1.84              0       -15.6949
            107          -1.84              0       -15.6949
            108          -1.84              0       -15.6949
            109          -1.84              0       -15.6949
            110          -1.84              0       -15.6949
            111          -1.84              0       -15.6949
            112          -1.84              0       -15.6949
            113          -1.84              0       -15.6949
            114          -1.84              0       -15.6949
            115          -1.84              0       -15.6949
            116          -1.84              0       -15.6949
            117          -1.84              0       -15.6949
            118          -1.84              0       -15.6949
            119          -1.84              0       -15.6949
            120          -1.84              0       -15.6949
            121          -1.84              0       -15.6949
            122          -1.84              0       -15.6949
            123          -1.84              0       -15.6949
            124          -1.84              0       -15.6949
            125          -1.84              0       -15.6949
            126          -1.84              0       -15.6949
            127          -1.84              0       -15.6949
            128          -1.84              0       -15.6949
            129          -1.84              0       -15.6949
            130          -1.84              0       -15.6949
            131          -1.84              0       -15.6949
            132          -1.84              0       -15.6949
            133          -1.84              0       -15.6949
            134          -1.84              0       -15.6949
            135          -1.84              0       -15.6949
            136          -1.84              0       -15.6949
            137          -1.84              0       -15.6949
            138          -1.84              0       -15.6949
            139          -1.84              0       -15.6949
            140          -1.84              0       -15.6949
            141          -1.84              0       -15.6949
            142          -1.84              0       -15.6949
            143          -1.84              0       -15.6949
            144          -1.84              0       -15.6949
            145          -1.84              0       -15.6949
            146          -1.84              0       -15.6949
            147          -1.84              0       -15.6949
            148          -1.84              0       -15.6949
            149          -1.84              0       -15.6949
            150          -1.84              0       -15.6949
            151          -1.84              0       -15.6949
            152          -1.84              0       -15.6949
            153          -1.84              0       -15.6949
            154          -1.84              0       -15.6949
            155          -1.84              0       -15.6949
            156          -1.84              0       -15.6949
            157          -1.84              0       -15.6949
            158          -1.84              0       -15.6949
            159          -1.84              0       -15.6949
            160          -1.84              0       -15.6949
            161          -1.84              0       -15.6949
            162          -1.84              0       -15.6949
            163          -1.84              0       -15.6949
            164          -1.84              0       -15.6949
            165          -1.84              0       -15.6949
            166          -1.84              0       -15.6949
            167          -1.84              0       -15.6949
            168          -1.84              0       -15.6949
            169          -1.84              0       -15.6949
            170          -1.84              0       -15.6949
            171          -1.84              0       -15.6949
            172          -1.84              0       -15.6949
            173          -1.84              0       -15.6949
            174          -1.84              0       -15.6949
            175          -1.84              0       -15.6949
            176          -1.84              0       -15.6949
            177          -1.84              0       -15.6949
            178          -1.84              0       -15.6949
            179          -1.84              0       -15.6949
            180          -1.84              0       -15.6949
            181          -1.84              0       -15.6949
            182          -1.84              0       -15.6949
            183          -1.84              0       -15.6949
            184          -1.84              0       -15.6949
            185          -1.84              0       -15.6949
            186          -1.84              0       -15.6949
            187          -1.84              0       -15.6949
            188          -1.84              0       -15.6949
            189          -1.84              0       -15.6949
            190          -1.84              0       -15.6949
            191          -1.84              0       -15.6949
            192          -1.84              0       -15.6949
            193          -1.84              0       -15.6949
            194          -1.84              0       -15.6949
            195          -1.84              0       -15.6949
            196          -1.84              0       -15.6949
            197          -1.84              0       -15.6949
            198          -1.84              0       -15.6949
            199          -1.84              0       -15.6949
            200          -1.84              0       -15.6949
            201          -1.84              0       -15.6949
            202          -1.84              0       -15.6949
            203          -1.84              0       -15.6949
            204          -1.84              0       -15.6949
            205          -1.84              0       -15.6949
            206          -1.84              0       -15.6949
            207          -1.84              0       -15.6949
            208          -1.84              0       -15.6949
            209          -1.84              0       -15.6949
            210          -1.84              0       -15.6949
            211          -1.84              0       -15.6949
            212          -1.84              0       -15.6949
            213          -1.84              0       -15.6949
            214          -1.84              0       -15.6949
            215          -1.84              0       -15.6949
            216          -1.84              0       -15.6949
            217          -1.84              0       -15.6949
            218          -1.84              0       -15.6949
            219          -1.84              0       -15.6949
            220          -1.84              0       -15.6949
            221          -1.84              0       -15.6949
            222          -1.84              0       -15.6949
            223          -1.84              0       -15.6949
            224          -1.84              0       -15.6949
            225          -1.84              0       -15.6949
            226          -1.84              0       -15.6949
            227          -1.84              0       -15.6949
            228          -1.84              0       -15.6949
            229          -1.84              0       -15.6949
            230          -1.84              0       -15.6949
            231          -1.84              0       -15.6949
            232          -1.84              0       -15.6949
            233          -1.84              0       -15.6949
            234          -1.84              0       -15.6949
            235          -1.84              0       -15.6949
            236          -1.84              0       -15.6949
            237          -1.84              0       -15.6949
            238          -1.84              0       -15.6949
            239          -1.84              0       -15.6949
            240          -1.84              0       -15.6949
            241          -1.84              0       -15.6949
            242          -1.84              0       -15.6949
            243          -1.84              0       -15.6949
            244          -1.84              0       -15.6949
            245          -1.84              0       -15.6949
            246          -1.84              0       -15.6949
            247          -1.84              0       -15.6949
            248          -1.84              0       -15.6949
            249          -1.84              0       -15.6949
            250          -1.84              0       -15.6949
            251          -1.84              0       -15.6949
            252          -1.84              0       -15.6949
            253          -1.84              0       -15.6949
            254          -1.84              0       -15.6949
            255          -1.84              0       -15.6949
            256          -1.84              0       -15.6949
            257          -1.84              0       -15.6949
            258          -1.84              0       -15.6949
            259          -1.84              0       -15.6949
            260          -1.84              0       -15.6949
            261          -1.84              0       -15.6949
            262          -1.84              0       -15.6949
            263          -1.84              0       -15.6949
            264          -1.84              0       -15.6949
            265          -1.84              0       -15.6949
            266          -1.84              0       -15.6949
            267          -1.84              0       -15.6949
            268          -1.84              0       -15.6949
            269          -1.84              0       -15.6949
            270          -1.84              0       -15.6949
            271          -1.84              0       -15.6949
            272          -1.84              0       -15.6949
            273          -1.84              0       -15.6949
            274          -1.84              0       -15.6949
            275          -1.84              0       -15.6949
            276          -1.84              0       -15.6949
            277          -1.84              0       -15.6949
            278          -1.84              0       -15.6949
            279          -1.84              0       -15.6949
            280          -1.84              0       -15.6949
            281          -1.84              0       -15.6949
            282          -1.84              0       -15.6949
            283          -1.84              0       -15.6949
            284          -1.84              0       -15.6949
            285          -1.84              0       -15.6949
            286          -1.84              0       -15.6949
            287          -1.84              0       -15.6949
            288          -1.84              0       -15.6949
            289          -1.84              0       -15.6949
            290          -1.84              0       -15.6949
            291          -1.84              0       -15.6949
            292          -1.84              0       -15.6949
            293          -1.84              0       -15.6949
            294          -1.84              0       -15.6949
            295          -1.84              0       -15.6949
            296          -1.84              0       -15.6949
            297          -1.84              0       -15.6949
            298          -1.84              0       -15.6949
            299          -1.84              0       -15.6949
            300          -1.84              0       -15.6949
            301          -1.84              0       -15.6949
            302          -1.84              0       -15.6949
            303          -1.84              0       -15.6949
            304          -1.84              0       -15.6949
            305          -1.84              0       -15.6949
            306          -1.84              0       -15.6949
            307          -1.84              0       -15.6949
            308          -1.84              0       -15.6949
            309          -1.84              0       -15.6949
            310          -1.84              0       -15.6949
            311          -1.84              0       -15.6949
            312          -1.84              0       -15.6949
            313          -1.84              0       -15.6949
            314          -1.84              0       -15.6949
            315          -1.84              0       -15.6949
            316          -1.84              0       -15.6949
            317          -1.84              0       -15.6949
            318          -1.84              0       -15.6949
            319          -1.84              0       -15.6949
            320          -1.84              0       -15.6949
            321          -1.84              0       -15.6949
            322          -1.84              0       -15.6949
            323          -1.84              0       -15.6949
            324          -1.84              0       -15.6949
            325          -1.84              0       -15.6949
