seed=1725278593
seed2=252
L=10
nstep=10000
tw=1
Jz=0
eps=5
alpha=0
Sz=0
pbc=0
type=1
beta=10
tau=0.001
Jxy=1
wc=10
ss=1
              1           -0.4              0       -15.6974
              2           -0.4              0       -15.8883
              3           -0.4              0       -16.1843
              4          -0.45              0       -16.3803
              5          -0.48              0       -16.6406
              6      -0.566667              0       -16.7732
              7      -0.657143              0       -16.8505
              8         -0.725              0       -16.9028
              9      -0.777778              0       -16.9449
             10          -0.82              0       -16.9613
             11      -0.854545              0       -16.9865
             12      -0.883333              0        -17.009
             13      -0.907692              0       -17.0346
             14      -0.942857              0       -17.0445
             15      -0.946667              0       -17.0809
             16        -0.9625              0       -17.1271
             17      -0.976471              0       -17.1741
             18      -0.988889              0       -17.2159
             19             -1              0       -17.2557
             20             -1              0        -17.303
             21             -1              0       -17.3457
             22             -1              0       -17.3967
             23             -1              0       -17.4457
             24      -0.991667              0       -17.4953
             25         -0.984              0        -17.541
             26      -0.992308              0       -17.5805
             27             -1              0        -17.617
             28             -1              0       -17.6522
             29             -1              0       -17.6522
             30             -1              0       -17.6522
             31             -1              0       -17.6522
             32             -1              0       -17.6522
             33             -1              0       -17.6522
             34             -1              0       -17.6522
             35             -1              0       -17.6522
             36             -1              0       -17.6522
             37             -1              0       -17.6522
             38             -1              0       -17.6522
             39             -1              0       -17.6522
             40             -1              0       -17.6522
             41             -1              0       -17.6522
             42             -1              0       -17.6522
             43             -1              0       -17.6522
             44             -1              0       -17.6522
             45             -1              0       -17.6522
             46             -1              0       -17.6522
             47             -1              0       -17.6522
             48             -1              0       -17.6522
             49             -1              0       -17.6522
             50             -1              0       -17.6522
             51             -1              0       -17.6522
             52             -1              0       -17.6522
             53             -1              0       -17.6522
             54             -1              0       -17.6522
             55             -1              0       -17.6522
             56             -1              0       -17.6522
             57             -1              0       -17.6522
             58             -1              0       -17.6522
             59             -1              0       -17.6522
             60             -1              0       -17.6522
             61             -1              0       -17.6522
             62             -1              0       -17.6522
             63             -1              0       -17.6522
             64             -1              0       -17.6522
             65             -1              0       -17.6522
             66             -1              0       -17.6522
             67             -1              0       -17.6522
             68             -1              0       -17.6522
             69             -1              0       -17.6522
             70             -1              0       -17.6522
             71             -1              0       -17.6522
             72             -1              0       -17.6522
             73             -1              0       -17.6522
             74             -1              0       -17.6522
             75             -1              0       -17.6522
             76             -1              0       -17.6522
             77             -1              0       -17.6522
             78             -1              0       -17.6522
             79             -1              0       -17.6522
             80             -1              0       -17.6522
             81             -1              0       -17.6522
             82             -1              0       -17.6522
             83             -1              0       -17.6522
             84             -1              0       -17.6522
             85             -1              0       -17.6522
             86             -1              0       -17.6522
             87             -1              0       -17.6522
             88             -1              0       -17.6522
             89             -1              0       -17.6522
             90             -1              0       -17.6522
             91             -1              0       -17.6522
             92             -1              0       -17.6522
             93             -1              0       -17.6522
             94             -1              0       -17.6522
             95             -1              0       -17.6522
             96             -1              0       -17.6522
             97             -1              0       -17.6522
             98             -1              0       -17.6522
             99             -1              0       -17.6522
            100             -1              0       -17.6522
            101             -1              0       -17.6522
            102             -1              0       -17.6522
            103             -1              0       -17.6522
            104             -1              0       -17.6522
            105             -1              0       -17.6522
            106             -1              0       -17.6522
            107             -1              0       -17.6522
            108             -1              0       -17.6522
            109             -1              0       -17.6522
            110             -1              0       -17.6522
            111             -1              0       -17.6522
            112             -1              0       -17.6522
            113             -1              0       -17.6522
            114             -1              0       -17.6522
            115             -1              0       -17.6522
            116             -1              0       -17.6522
            117             -1              0       -17.6522
            118             -1              0       -17.6522
            119             -1              0       -17.6522
            120             -1              0       -17.6522
            121             -1              0       -17.6522
            122             -1              0       -17.6522
            123             -1              0       -17.6522
            124             -1              0       -17.6522
            125             -1              0       -17.6522
            126             -1              0       -17.6522
            127             -1              0       -17.6522
            128             -1              0       -17.6522
            129             -1              0       -17.6522
            130             -1              0       -17.6522
            131             -1              0       -17.6522
            132             -1              0       -17.6522
            133             -1              0       -17.6522
            134             -1              0       -17.6522
            135             -1              0       -17.6522
            136             -1              0       -17.6522
            137             -1              0       -17.6522
            138             -1              0       -17.6522
            139             -1              0       -17.6522
            140             -1              0       -17.6522
            141             -1              0       -17.6522
            142             -1              0       -17.6522
            143             -1              0       -17.6522
            144             -1              0       -17.6522
            145             -1              0       -17.6522
            146             -1              0       -17.6522
            147             -1              0       -17.6522
            148             -1              0       -17.6522
            149             -1              0       -17.6522
            150             -1              0       -17.6522
            151             -1              0       -17.6522
            152             -1              0       -17.6522
            153             -1              0       -17.6522
            154             -1              0       -17.6522
            155             -1              0       -17.6522
            156             -1              0       -17.6522
            157             -1              0       -17.6522
            158             -1              0       -17.6522
            159             -1              0       -17.6522
            160             -1              0       -17.6522
            161             -1              0       -17.6522
            162             -1              0       -17.6522
            163             -1              0       -17.6522
            164             -1              0       -17.6522
            165             -1              0       -17.6522
            166             -1              0       -17.6522
            167             -1              0       -17.6522
            168             -1              0       -17.6522
            169             -1              0       -17.6522
            170             -1              0       -17.6522
            171             -1              0       -17.6522
            172             -1              0       -17.6522
            173             -1              0       -17.6522
            174             -1              0       -17.6522
            175             -1              0       -17.6522
            176             -1              0       -17.6522
            177             -1              0       -17.6522
            178             -1              0       -17.6522
            179             -1              0       -17.6522
            180             -1              0       -17.6522
            181             -1              0       -17.6522
            182             -1              0       -17.6522
            183             -1              0       -17.6522
            184             -1              0       -17.6522
            185             -1              0       -17.6522
            186             -1              0       -17.6522
            187             -1              0       -17.6522
            188             -1              0       -17.6522
            189             -1              0       -17.6522
            190             -1              0       -17.6522
            191             -1              0       -17.6522
            192             -1              0       -17.6522
            193             -1              0       -17.6522
            194             -1              0       -17.6522
            195             -1              0       -17.6522
            196             -1              0       -17.6522
            197             -1              0       -17.6522
            198             -1              0       -17.6522
            199             -1              0       -17.6522
            200             -1              0       -17.6522
            201             -1              0       -17.6522
            202             -1              0       -17.6522
            203             -1              0       -17.6522
            204             -1              0       -17.6522
            205             -1              0       -17.6522
            206             -1              0       -17.6522
            207             -1              0       -17.6522
            208             -1              0       -17.6522
            209             -1              0       -17.6522
            210             -1              0       -17.6522
            211             -1              0       -17.6522
            212             -1              0       -17.6522
            213             -1              0       -17.6522
            214             -1              0       -17.6522
            215             -1              0       -17.6522
            216             -1              0       -17.6522
            217             -1              0       -17.6522
            218             -1              0       -17.6522
            219             -1              0       -17.6522
            220             -1              0       -17.6522
            221             -1              0       -17.6522
            222             -1              0       -17.6522
            223             -1              0       -17.6522
            224             -1              0       -17.6522
            225             -1              0       -17.6522
            226             -1              0       -17.6522
            227             -1              0       -17.6522
            228             -1              0       -17.6522
            229             -1              0       -17.6522
            230             -1              0       -17.6522
            231             -1              0       -17.6522
            232             -1              0       -17.6522
            233             -1              0       -17.6522
            234             -1              0       -17.6522
            235             -1              0       -17.6522
            236             -1              0       -17.6522
            237             -1              0       -17.6522
            238             -1              0       -17.6522
            239             -1              0       -17.6522
            240             -1              0       -17.6522
            241             -1              0       -17.6522
            242             -1              0       -17.6522
            243             -1              0       -17.6522
            244             -1              0       -17.6522
            245             -1              0       -17.6522
            246             -1              0       -17.6522
            247             -1              0       -17.6522
            248             -1              0       -17.6522
            249             -1              0       -17.6522
            250             -1              0       -17.6522
            251             -1              0       -17.6522
            252             -1              0       -17.6522
            253             -1              0       -17.6522
            254             -1              0       -17.6522
            255             -1              0       -17.6522
            256             -1              0       -17.6522
            257             -1              0       -17.6522
            258             -1              0       -17.6522
            259             -1              0       -17.6522
            260             -1              0       -17.6522
            261             -1              0       -17.6522
            262             -1              0       -17.6522
            263             -1              0       -17.6522
            264             -1              0       -17.6522
            265             -1              0       -17.6522
            266             -1              0       -17.6522
            267             -1              0       -17.6522
            268             -1              0       -17.6522
            269             -1              0       -17.6522
            270             -1              0       -17.6522
            271             -1              0       -17.6522
            272             -1              0       -17.6522
            273             -1              0       -17.6522
            274             -1              0       -17.6522
            275             -1              0       -17.6522
            276             -1              0       -17.6522
            277             -1              0       -17.6522
            278             -1              0       -17.6522
            279             -1              0       -17.6522
            280             -1              0       -17.6522
            281             -1              0       -17.6522
            282             -1              0       -17.6522
            283             -1              0       -17.6522
            284             -1              0       -17.6522
            285             -1              0       -17.6522
            286             -1              0       -17.6522
            287             -1              0       -17.6522
            288             -1              0       -17.6522
            289             -1              0       -17.6522
            290             -1              0       -17.6522
            291             -1              0       -17.6522
            292             -1              0       -17.6522
            293             -1              0       -17.6522
            294             -1              0       -17.6522
            295             -1              0       -17.6522
            296             -1              0       -17.6522
            297             -1              0       -17.6522
            298             -1              0       -17.6522
            299             -1              0       -17.6522
            300             -1              0       -17.6522
            301             -1              0       -17.6522
            302             -1              0       -17.6522
            303             -1              0       -17.6522
            304             -1              0       -17.6522
            305             -1              0       -17.6522
            306             -1              0       -17.6522
            307             -1              0       -17.6522
            308             -1              0       -17.6522
            309             -1              0       -17.6522
            310             -1              0       -17.6522
            311             -1              0       -17.6522
            312             -1              0       -17.6522
            313             -1              0       -17.6522
            314             -1              0       -17.6522
            315             -1              0       -17.6522
            316             -1              0       -17.6522
            317             -1              0       -17.6522
            318             -1              0       -17.6522
            319             -1              0       -17.6522
            320             -1              0       -17.6522
            321             -1              0       -17.6522
            322             -1              0       -17.6522
            323             -1              0       -17.6522
            324             -1              0       -17.6522
            325             -1              0       -17.6522
