seed=1725239196
seed2=258
L=10
nstep=10000
tw=1
Jz=0
eps=5
alpha=0
Sz=0
pbc=0
type=1
beta=10
tau=0.001
Jxy=1
wc=10
ss=1
              1           -0.4              0       -13.1905
              2           -0.3              0       -13.2011
              3           -0.4              0       -13.4789
              4           -0.5              0       -13.7478
              5           -0.6              0       -13.9027
              6      -0.733333              0       -13.9689
              7      -0.828571              0       -14.0138
              8           -0.9              0       -14.0817
              9      -0.955556              0       -14.2796
             10          -1.02              0       -14.4253
             11       -1.05455              0       -14.5558
             12       -1.08333              0       -14.6957
             13       -1.10769              0       -14.8623
             14       -1.11429              0       -15.0224
             15       -1.10667              0       -15.1504
             16        -1.0875              0       -15.2653
             17       -1.04706              0       -15.3802
             18       -1.01111              0       -15.4901
             19      -0.989474              0       -15.5866
             20          -0.96              0       -15.6777
             21      -0.942857              0        -15.745
             22      -0.918182              0        -15.819
             23      -0.904348              0       -15.8848
             24      -0.891667              0       -15.9405
             25         -0.872              0       -15.9989
             26      -0.853846              0       -16.0529
             27       -0.82963              0       -16.1034
             28           -0.8              0       -16.1518
             29      -0.772414              0       -16.1969
             30      -0.753333              0       -16.2365
             31      -0.748387              0       -16.2676
             32       -0.74375              0       -16.2968
             33      -0.745455              0       -16.3193
             34      -0.741176              0       -16.3415
             35      -0.741176              0       -16.3415
             36      -0.741176              0       -16.3415
             37      -0.741176              0       -16.3415
             38      -0.741176              0       -16.3415
             39      -0.741176              0       -16.3415
             40      -0.741176              0       -16.3415
             41      -0.741176              0       -16.3415
             42      -0.741176              0       -16.3415
             43      -0.741176              0       -16.3415
             44      -0.741176              0       -16.3415
             45      -0.741176              0       -16.3415
             46      -0.741176              0       -16.3415
             47      -0.741176              0       -16.3415
             48      -0.741176              0       -16.3415
             49      -0.741176              0       -16.3415
             50      -0.741176              0       -16.3415
             51      -0.741176              0       -16.3415
             52      -0.741176              0       -16.3415
             53      -0.741176              0       -16.3415
             54      -0.741176              0       -16.3415
             55      -0.741176              0       -16.3415
             56      -0.741176              0       -16.3415
             57      -0.741176              0       -16.3415
             58      -0.741176              0       -16.3415
             59      -0.741176              0       -16.3415
             60      -0.741176              0       -16.3415
             61      -0.741176              0       -16.3415
             62      -0.741176              0       -16.3415
             63      -0.741176              0       -16.3415
             64      -0.741176              0       -16.3415
             65      -0.741176              0       -16.3415
             66      -0.741176              0       -16.3415
             67      -0.741176              0       -16.3415
             68      -0.741176              0       -16.3415
             69      -0.741176              0       -16.3415
             70      -0.741176              0       -16.3415
             71      -0.741176              0       -16.3415
             72      -0.741176              0       -16.3415
             73      -0.741176              0       -16.3415
             74      -0.741176              0       -16.3415
             75      -0.741176              0       -16.3415
             76      -0.741176              0       -16.3415
             77      -0.741176              0       -16.3415
             78      -0.741176              0       -16.3415
             79      -0.741176              0       -16.3415
             80      -0.741176              0       -16.3415
             81      -0.741176              0       -16.3415
             82      -0.741176              0       -16.3415
             83      -0.741176              0       -16.3415
             84      -0.741176              0       -16.3415
             85      -0.741176              0       -16.3415
             86      -0.741176              0       -16.3415
             87      -0.741176              0       -16.3415
             88      -0.741176              0       -16.3415
             89      -0.741176              0       -16.3415
             90      -0.741176              0       -16.3415
             91      -0.754286              0       -16.3926
             92      -0.761111              0         -16.46
             93      -0.772973              0         -16.53
             94      -0.784211              0       -16.5902
             95      -0.794872              0       -16.6453
             96         -0.795              0       -16.7034
             97      -0.795122              0       -16.7588
             98           -0.8              0       -16.8164
             99      -0.804651              0       -16.8791
            100      -0.804545              0       -16.9428
            101      -0.795556              0       -17.0201
            102      -0.791304              0        -17.094
            103      -0.782979              0       -17.1654
            104         -0.775              0       -17.2338
            105      -0.767347              0       -17.2995
            106         -0.756              0       -17.3625
            107      -0.745098              0       -17.4231
            108      -0.738462              0       -17.4795
            109      -0.732075              0       -17.5338
            110      -0.725926              0       -17.5847
            111          -0.72              0       -17.6338
            112      -0.714286              0       -17.6811
            113      -0.708772              0       -17.7268
            114      -0.706897              0       -17.7696
            115      -0.701695              0       -17.8125
            116      -0.696667              0       -17.8552
            117      -0.695082              0       -17.8952
            118      -0.693548              0       -17.9339
            119      -0.695238              0       -17.9704
            120       -0.69375              0       -18.0067
            121      -0.692308              0       -18.0419
            122      -0.690909              0       -18.0761
            123      -0.689552              0       -18.1092
            124      -0.688235              0       -18.1419
            125      -0.686957              0       -18.1736
            126      -0.685714              0       -18.2043
            127       -0.68169              0       -18.2352
            128      -0.677778              0       -18.2652
            129      -0.676712              0       -18.2924
            130      -0.675676              0       -18.3189
            131         -0.672              0       -18.3467
            132      -0.668421              0       -18.3738
            133      -0.662338              0       -18.4005
            134      -0.658974              0       -18.4233
            135      -0.655696              0       -18.4456
            136        -0.6525              0       -18.4673
            137      -0.649383              0       -18.4885
            138       -0.64878              0        -18.506
            139      -0.645783              0        -18.526
            140      -0.642857              0       -18.5456
            141      -0.637647              0       -18.5677
            142      -0.632558              0       -18.5893
            143      -0.627586              0       -18.6105
            144      -0.620455              0       -18.6317
            145       -0.61573              0       -18.6514
            146      -0.613333              0       -18.6689
            147      -0.613187              0       -18.6859
            148      -0.615217              0       -18.7016
            149      -0.617204              0       -18.7169
            150      -0.619149              0       -18.7319
            151      -0.618947              0       -18.7482
            152       -0.61875              0       -18.7643
            153      -0.618557              0       -18.7799
            154      -0.614286              0       -18.7972
            155      -0.612121              0        -18.814
            156          -0.61              0       -18.8305
            157      -0.607921              0       -18.8466
            158      -0.607843              0       -18.8616
            159      -0.607767              0       -18.8754
            160      -0.609615              0       -18.8887
            161      -0.611429              0       -18.9019
            162      -0.611321              0       -18.9164
            163      -0.609346              0       -18.9308
            164      -0.609259              0       -18.9435
            165      -0.607339              0       -18.9563
            166      -0.603636              0       -18.9689
            167           -0.6              0       -18.9813
            168      -0.598214              0       -18.9931
            169       -0.59823              0       -19.0021
            170      -0.598246              0       -19.0072
            171      -0.596522              0        -19.017
            172      -0.594828              0       -19.0265
            173      -0.591453              0       -19.0383
            174      -0.588136              0       -19.0499
            175      -0.584874              0       -19.0612
            176      -0.581667              0       -19.0724
            177      -0.578512              0       -19.0837
            178       -0.57541              0       -19.0948
            179      -0.573984              0       -19.1053
            180      -0.572581              0       -19.1157
            181        -0.5712              0       -19.1259
            182      -0.571429              0       -19.1357
            183      -0.574803              0       -19.1449
            184      -0.576563              0       -19.1544
            185      -0.578295              0       -19.1637
            186          -0.58              0       -19.1726
            187      -0.581679              0       -19.1808
            188      -0.583333              0       -19.1889
            189       -0.58797              0       -19.1957
            190       -0.59403              0       -19.2014
            191      -0.598519              0       -19.2078
            192      -0.602941              0       -19.2141
            193      -0.607299              0       -19.2182
            194      -0.610145              0       -19.2196
            195       -0.61295              0       -19.2255
            196      -0.614286              0       -19.2315
            197      -0.615603              0       -19.2374
            198      -0.614085              0       -19.2446
            199      -0.611189              0       -19.2527
            200      -0.609722              0       -19.2602
            201      -0.608276              0       -19.2676
            202      -0.606849              0       -19.2749
            203      -0.604082              0       -19.2829
            204      -0.601351              0       -19.2908
            205      -0.597315              0       -19.2988
            206      -0.593333              0       -19.3066
            207      -0.590728              0       -19.3141
            208      -0.588158              0       -19.3214
            209      -0.585621              0       -19.3286
            210      -0.583117              0       -19.3357
            211      -0.581935              0       -19.3417
            212      -0.582051              0       -19.3465
            213      -0.582166              0       -19.3513
            214      -0.582278              0       -19.3561
            215       -0.58239              0       -19.3616
            216       -0.58125              0       -19.3673
            217      -0.578882              0       -19.3739
            218      -0.576543              0       -19.3805
            219      -0.573006              0       -19.3872
            220      -0.569512              0       -19.3939
            221      -0.566061              0       -19.4004
            222      -0.562651              0       -19.4069
            223      -0.559281              0       -19.4133
            224      -0.555952              0       -19.4197
            225      -0.553846              0       -19.4239
            226      -0.550588              0       -19.4301
            227      -0.548538              0       -19.4359
            228      -0.546512              0       -19.4416
            229      -0.543353              0       -19.4476
            230      -0.541379              0       -19.4526
            231      -0.539429              0       -19.4576
            232      -0.538636              0       -19.4623
            233      -0.537853              0       -19.4671
            234      -0.537079              0       -19.4718
            235      -0.536313              0       -19.4765
            236      -0.535556              0       -19.4812
            237      -0.534807              0       -19.4863
            238      -0.534066              0       -19.4913
            239      -0.533333              0       -19.4962
            240      -0.534783              0       -19.4994
            241      -0.536216              0       -19.5025
            242      -0.535484              0       -19.5061
            243      -0.535829              0       -19.5091
            244      -0.535106              0       -19.5126
            245      -0.533333              0       -19.5175
            246      -0.531579              0       -19.5224
            247      -0.529843              0       -19.5271
            248      -0.528125              0       -19.5319
            249      -0.526425              0       -19.5366
            250      -0.524742              0       -19.5412
            251      -0.523077              0       -19.5458
            252      -0.521429              0       -19.5503
            253      -0.519797              0       -19.5548
            254      -0.520202              0       -19.5584
            255      -0.519598              0       -19.5627
            256         -0.519              0       -19.5668
            257      -0.518408              0        -19.571
            258      -0.519802              0       -19.5748
            259      -0.521182              0       -19.5785
            260      -0.523529              0       -19.5809
            261      -0.525854              0       -19.5832
            262      -0.527184              0       -19.5857
            263      -0.529469              0       -19.5877
            264      -0.528846              0         -19.59
            265       -0.52823              0       -19.5923
            266      -0.527619              0       -19.5946
            267      -0.527962              0       -19.5965
            268      -0.528302              0       -19.5984
            269        -0.5277              0       -19.6017
            270      -0.526168              0       -19.6053
            271      -0.524651              0       -19.6089
            272      -0.523148              0       -19.6125
            273      -0.521659              0        -19.616
            274      -0.521101              0       -19.6187
            275      -0.520548              0       -19.6213
            276      -0.520909              0       -19.6238
            277      -0.521267              0       -19.6258
            278      -0.521622              0       -19.6269
            279      -0.521973              0       -19.6288
            280      -0.523214              0       -19.6307
            281      -0.524444              0       -19.6326
            282      -0.526549              0       -19.6331
            283      -0.528634              0        -19.632
            284      -0.528947              0       -19.6331
            285      -0.529258              0       -19.6351
            286      -0.529565              0       -19.6371
            287      -0.528139              0       -19.6408
            288      -0.526724              0       -19.6444
            289       -0.52618              0       -19.6474
            290      -0.524786              0       -19.6509
            291      -0.523404              0       -19.6544
            292      -0.523729              0        -19.656
            293      -0.524051              0       -19.6573
            294       -0.52437              0       -19.6599
            295      -0.523013              0       -19.6631
            296      -0.521667              0       -19.6662
            297      -0.520332              0       -19.6687
            298      -0.519008              0       -19.6712
            299      -0.517695              0       -19.6743
            300      -0.516393              0       -19.6774
            301      -0.515102              0       -19.6805
            302      -0.513821              0       -19.6835
            303      -0.512551              0       -19.6865
            304      -0.512097              0       -19.6895
            305      -0.511647              0       -19.6924
            306        -0.5104              0       -19.6954
            307      -0.509163              0       -19.6983
            308      -0.507937              0       -19.7012
            309      -0.506719              0       -19.7041
            310      -0.505512              0       -19.7069
            311      -0.504314              0       -19.7097
            312      -0.503125              0       -19.7125
            313      -0.501946              0       -19.7153
            314      -0.500775              0       -19.7181
            315      -0.500775              0       -19.7181
            316      -0.500775              0       -19.7181
            317      -0.500775              0       -19.7181
            318      -0.500775              0       -19.7181
            319      -0.500775              0       -19.7181
            320      -0.500775              0       -19.7181
            321      -0.500775              0       -19.7181
            322      -0.500775              0       -19.7181
            323      -0.500775              0       -19.7181
            324      -0.500775              0       -19.7181
            325      -0.500775              0       -19.7181
