seed=1725278593
seed2=124
L=10
nstep=10000
tw=1
Jz=0
eps=5
alpha=0
Sz=0
pbc=0
type=1
beta=10
tau=0.001
Jxy=1
wc=10
ss=1
              1           -0.4              0       -17.2783
              2           -0.7              0       -18.1578
              3      -0.933333              0       -18.5395
              4          -1.15              0       -18.7551
              5           -1.2              0       -19.0007
              6       -1.23333              0       -19.1533
              7       -1.25714              0       -19.2579
              8         -1.275              0       -19.3558
              9       -1.28889              0        -19.453
             10          -1.32              0       -19.5284
             11       -1.32727              0       -19.5921
             12       -1.33333              0       -19.6462
             13       -1.32308              0       -19.6801
             14       -1.31429              0       -19.7129
             15       -1.30667              0       -19.7576
             16           -1.3              0       -19.8049
             17       -1.29412              0       -19.8465
             18       -1.27778              0       -19.8816
             19       -1.27368              0       -19.9054
             20          -1.27              0       -19.9231
             21       -1.24762              0       -19.9382
             22       -1.24545              0       -19.9488
             23       -1.25217              0       -19.9601
             24       -1.25833              0       -19.9868
             25         -1.248              0        -20.014
             26       -1.23846              0        -20.039
             27       -1.23704              0       -20.0647
             28       -1.23571              0       -20.0935
             29       -1.22759              0       -20.1195
             30          -1.22              0       -20.1443
             31       -1.20645              0       -20.1676
             32       -1.19375              0       -20.1894
             33       -1.17576              0       -20.2146
             34       -1.15882              0       -20.2383
             35       -1.14286              0       -20.2606
             36       -1.12222              0       -20.2826
             37       -1.11351              0       -20.2996
             38       -1.11053              0        -20.314
             39       -1.10769              0        -20.326
             40         -1.105              0       -20.3351
             41       -1.09756              0       -20.3453
             42       -1.08571              0       -20.3593
             43       -1.07907              0       -20.3664
             44       -1.07273              0       -20.3736
             45       -1.06667              0       -20.3791
             46       -1.05217              0       -20.3917
             47       -1.04681              0       -20.4001
             48        -1.0375              0         -20.41
             49       -1.02857              0       -20.4196
             50          -1.02              0       -20.4288
             51       -1.01176              0       -20.4376
             52       -1.01176              0       -20.4376
             53       -1.01176              0       -20.4376
             54       -1.01176              0       -20.4376
             55       -1.01176              0       -20.4376
             56       -1.01176              0       -20.4376
             57       -1.01176              0       -20.4376
             58       -1.01176              0       -20.4376
             59       -1.01176              0       -20.4376
             60       -1.01176              0       -20.4376
             61       -1.01176              0       -20.4376
             62       -1.01176              0       -20.4376
             63       -1.01176              0       -20.4376
             64       -1.01176              0       -20.4376
             65       -1.01176              0       -20.4376
             66       -1.01176              0       -20.4376
             67       -1.01176              0       -20.4376
             68       -1.01176              0       -20.4376
             69       -1.01176              0       -20.4376
             70       -1.01176              0       -20.4376
             71       -1.01176              0       -20.4376
             72       -1.01176              0       -20.4376
             73       -1.01176              0       -20.4376
             74       -1.01176              0       -20.4376
             75       -1.01176              0       -20.4376
             76       -1.01176              0       -20.4376
             77       -1.01176              0       -20.4376
             78       -1.01176              0       -20.4376
             79       -1.01176              0       -20.4376
             80       -1.01176              0       -20.4376
             81       -1.01176              0       -20.4376
             82       -1.01176              0       -20.4376
             83       -1.01176              0       -20.4376
             84       -1.01176              0       -20.4376
             85       -1.01176              0       -20.4376
             86       -1.01176              0       -20.4376
             87       -1.01176              0       -20.4376
             88       -1.01176              0       -20.4376
             89       -1.01176              0       -20.4376
             90       -1.01176              0       -20.4376
             91       -1.01176              0       -20.4376
             92       -1.01176              0       -20.4376
             93       -1.01176              0       -20.4376
             94       -1.01176              0       -20.4376
             95       -1.01176              0       -20.4376
             96       -1.01176              0       -20.4376
             97       -1.01176              0       -20.4376
             98       -1.01176              0       -20.4376
             99       -1.01176              0       -20.4376
            100       -1.01176              0       -20.4376
            101       -1.01176              0       -20.4376
            102       -1.01176              0       -20.4376
            103       -1.01176              0       -20.4376
            104       -1.01176              0       -20.4376
            105       -1.01176              0       -20.4376
            106       -1.01176              0       -20.4376
            107       -1.01176              0       -20.4376
            108       -1.01176              0       -20.4376
            109       -1.01176              0       -20.4376
            110       -1.01176              0       -20.4376
            111       -1.01176              0       -20.4376
            112       -1.01176              0       -20.4376
            113       -1.01176              0       -20.4376
            114       -1.01176              0       -20.4376
            115       -1.01176              0       -20.4376
            116       -1.01176              0       -20.4376
            117       -1.01176              0       -20.4376
            118       -1.01176              0       -20.4376
            119       -1.01176              0       -20.4376
            120       -1.01176              0       -20.4376
            121       -1.01176              0       -20.4376
            122       -1.01176              0       -20.4376
            123       -1.01176              0       -20.4376
            124       -1.01176              0       -20.4376
            125       -1.01176              0       -20.4376
            126       -1.01176              0       -20.4376
            127       -1.01176              0       -20.4376
            128       -1.01176              0       -20.4376
            129       -1.01176              0       -20.4376
            130       -1.01176              0       -20.4376
            131       -1.01176              0       -20.4376
            132       -1.01176              0       -20.4376
            133       -1.01176              0       -20.4376
            134       -1.01176              0       -20.4376
            135       -1.01176              0       -20.4376
            136       -1.01176              0       -20.4376
            137       -1.01176              0       -20.4376
            138       -1.01176              0       -20.4376
            139       -1.01176              0       -20.4376
            140       -1.01176              0       -20.4376
            141       -1.01176              0       -20.4376
            142       -1.01176              0       -20.4376
            143       -1.01176              0       -20.4376
            144       -1.01176              0       -20.4376
            145       -1.01176              0       -20.4376
            146       -1.01176              0       -20.4376
            147       -1.01176              0       -20.4376
            148       -1.01176              0       -20.4376
            149       -1.01176              0       -20.4376
            150       -1.01176              0       -20.4376
            151       -1.01176              0       -20.4376
            152       -1.01176              0       -20.4376
            153       -1.01176              0       -20.4376
            154       -1.01176              0       -20.4376
            155       -1.01176              0       -20.4376
            156       -1.01176              0       -20.4376
            157       -1.01176              0       -20.4376
            158       -1.01176              0       -20.4376
            159       -1.01176              0       -20.4376
            160       -1.01176              0       -20.4376
            161       -1.01176              0       -20.4376
            162       -1.01176              0       -20.4376
            163       -1.01176              0       -20.4376
            164       -1.01176              0       -20.4376
            165       -1.01176              0       -20.4376
            166       -1.01176              0       -20.4376
            167       -1.01176              0       -20.4376
            168       -1.01176              0       -20.4376
            169       -1.01176              0       -20.4376
            170       -1.01176              0       -20.4376
            171       -1.01176              0       -20.4376
            172       -1.01176              0       -20.4376
            173       -1.01176              0       -20.4376
            174       -1.01176              0       -20.4376
            175       -1.01176              0       -20.4376
            176       -1.01176              0       -20.4376
            177       -1.01176              0       -20.4376
            178       -1.01176              0       -20.4376
            179       -1.01176              0       -20.4376
            180       -1.01176              0       -20.4376
            181       -1.01176              0       -20.4376
            182       -1.01176              0       -20.4376
            183       -1.01176              0       -20.4376
            184       -1.01176              0       -20.4376
            185       -1.01176              0       -20.4376
            186       -1.01176              0       -20.4376
            187       -1.01176              0       -20.4376
            188       -1.01176              0       -20.4376
            189       -1.01176              0       -20.4376
            190       -1.01176              0       -20.4376
            191       -1.01176              0       -20.4376
            192       -1.01176              0       -20.4376
            193       -1.01176              0       -20.4376
            194       -1.01176              0       -20.4376
            195       -1.01176              0       -20.4376
            196       -1.01176              0       -20.4376
            197       -1.01176              0       -20.4376
            198       -1.01176              0       -20.4376
            199       -1.01176              0       -20.4376
            200       -1.01176              0       -20.4376
            201       -1.01176              0       -20.4376
            202       -1.01176              0       -20.4376
            203       -1.01176              0       -20.4376
            204       -1.01176              0       -20.4376
            205       -1.01176              0       -20.4376
            206       -1.01176              0       -20.4376
            207       -1.01176              0       -20.4376
            208       -1.01176              0       -20.4376
            209       -1.01176              0       -20.4376
            210       -1.01176              0       -20.4376
            211       -1.01176              0       -20.4376
            212       -1.01176              0       -20.4376
            213       -1.01176              0       -20.4376
            214       -1.01176              0       -20.4376
            215       -1.01176              0       -20.4376
            216       -1.01176              0       -20.4376
            217       -1.01176              0       -20.4376
            218       -1.01176              0       -20.4376
            219       -1.01176              0       -20.4376
            220       -1.01176              0       -20.4376
            221       -1.01176              0       -20.4376
            222       -1.01176              0       -20.4376
            223       -1.01176              0       -20.4376
            224       -1.01176              0       -20.4376
            225       -1.01176              0       -20.4376
            226       -1.01176              0       -20.4376
            227       -1.01176              0       -20.4376
            228       -1.01176              0       -20.4376
            229       -1.01176              0       -20.4376
            230       -1.01176              0       -20.4376
            231       -1.01176              0       -20.4376
            232       -1.01176              0       -20.4376
            233       -1.01176              0       -20.4376
            234       -1.01176              0       -20.4376
            235       -1.01176              0       -20.4376
            236       -1.01176              0       -20.4376
            237       -1.01176              0       -20.4376
            238       -1.01176              0       -20.4376
            239       -1.01176              0       -20.4376
            240       -1.01176              0       -20.4376
            241       -1.01176              0       -20.4376
            242       -1.01176              0       -20.4376
            243       -1.01176              0       -20.4376
            244       -1.01176              0       -20.4376
            245       -1.01176              0       -20.4376
            246       -1.01176              0       -20.4376
            247       -1.01176              0       -20.4376
            248       -1.01176              0       -20.4376
            249       -1.01176              0       -20.4376
            250       -1.01176              0       -20.4376
            251       -1.01176              0       -20.4376
            252       -1.01176              0       -20.4376
            253       -1.01176              0       -20.4376
            254       -1.01176              0       -20.4376
            255       -1.01176              0       -20.4376
            256       -1.01176              0       -20.4376
            257       -1.01176              0       -20.4376
            258       -1.01176              0       -20.4376
            259       -1.01176              0       -20.4376
            260       -1.01176              0       -20.4376
            261       -1.01176              0       -20.4376
            262       -1.01176              0       -20.4376
            263       -1.01176              0       -20.4376
            264       -1.01176              0       -20.4376
            265       -1.01176              0       -20.4376
            266       -1.01176              0       -20.4376
            267       -1.01176              0       -20.4376
            268       -1.01176              0       -20.4376
            269       -1.01176              0       -20.4376
            270       -1.01176              0       -20.4376
            271       -1.01176              0       -20.4376
            272       -1.01176              0       -20.4376
            273       -1.01176              0       -20.4376
            274       -1.01176              0       -20.4376
            275       -1.01176              0       -20.4376
            276       -1.01176              0       -20.4376
            277       -1.01176              0       -20.4376
            278       -1.01176              0       -20.4376
            279       -1.01176              0       -20.4376
            280       -1.01176              0       -20.4376
            281       -1.01176              0       -20.4376
            282       -1.01176              0       -20.4376
            283       -1.01176              0       -20.4376
            284       -1.01176              0       -20.4376
            285       -1.01176              0       -20.4376
            286       -1.01176              0       -20.4376
            287       -1.01176              0       -20.4376
            288       -1.01176              0       -20.4376
            289       -1.01176              0       -20.4376
            290       -1.01176              0       -20.4376
            291       -1.01176              0       -20.4376
            292       -1.01176              0       -20.4376
            293       -1.01176              0       -20.4376
            294       -1.01176              0       -20.4376
            295       -1.01176              0       -20.4376
            296       -1.01176              0       -20.4376
            297       -1.01176              0       -20.4376
            298       -1.01176              0       -20.4376
            299       -1.01176              0       -20.4376
            300       -1.01176              0       -20.4376
            301       -1.01176              0       -20.4376
            302       -1.01176              0       -20.4376
            303       -1.01176              0       -20.4376
            304       -1.01176              0       -20.4376
            305       -1.01176              0       -20.4376
            306       -1.01176              0       -20.4376
            307       -1.01176              0       -20.4376
            308       -1.01176              0       -20.4376
            309       -1.01176              0       -20.4376
            310       -1.01176              0       -20.4376
            311       -1.01176              0       -20.4376
            312       -1.01176              0       -20.4376
            313       -1.01176              0       -20.4376
            314       -1.01176              0       -20.4376
            315       -1.01176              0       -20.4376
            316       -1.01176              0       -20.4376
            317       -1.01176              0       -20.4376
            318       -1.01176              0       -20.4376
            319       -1.01176              0       -20.4376
            320       -1.01176              0       -20.4376
            321       -1.01176              0       -20.4376
            322       -1.01176              0       -20.4376
            323       -1.01176              0       -20.4376
            324       -1.01176              0       -20.4376
            325       -1.01176              0       -20.4376
