seed=1725259037
seed2=187
L=10
nstep=10000
tw=1
Jz=0
eps=5
alpha=0
Sz=0
pbc=0
type=1
beta=10
tau=0.001
Jxy=1
wc=10
ss=1
              1              0              0       -10.5885
              2           -0.3              0       -14.3994
              3           -0.6              0       -16.5183
              4           -0.8              0       -17.6277
              5          -0.96              0       -18.3665
              6             -1              0       -18.8503
              7       -1.08571              0       -19.2228
              8         -1.125              0       -19.4764
              9       -1.15556              0         -19.71
             10          -1.14              0         -19.93
             11       -1.10909              0       -20.1251
             12          -1.05              0       -20.4143
             13             -1              0       -20.6589
             14      -0.971429              0       -20.8573
             15      -0.933333              0       -21.0398
             16      -0.933333              0       -21.0398
             17      -0.933333              0       -21.0398
             18      -0.933333              0       -21.0398
             19      -0.933333              0       -21.0398
             20      -0.933333              0       -21.0398
             21      -0.933333              0       -21.0398
             22      -0.933333              0       -21.0398
             23      -0.933333              0       -21.0398
             24      -0.933333              0       -21.0398
             25      -0.933333              0       -21.0398
             26      -0.933333              0       -21.0398
             27      -0.933333              0       -21.0398
             28      -0.933333              0       -21.0398
             29      -0.933333              0       -21.0398
             30      -0.933333              0       -21.0398
             31      -0.933333              0       -21.0398
             32      -0.933333              0       -21.0398
             33      -0.933333              0       -21.0398
             34      -0.933333              0       -21.0398
             35      -0.933333              0       -21.0398
             36      -0.933333              0       -21.0398
             37      -0.933333              0       -21.0398
             38      -0.933333              0       -21.0398
             39      -0.933333              0       -21.0398
             40      -0.933333              0       -21.0398
             41      -0.933333              0       -21.0398
             42      -0.933333              0       -21.0398
             43      -0.933333              0       -21.0398
             44      -0.933333              0       -21.0398
             45      -0.933333              0       -21.0398
             46      -0.933333              0       -21.0398
             47      -0.933333              0       -21.0398
             48      -0.933333              0       -21.0398
             49      -0.933333              0       -21.0398
             50      -0.933333              0       -21.0398
             51      -0.933333              0       -21.0398
             52      -0.933333              0       -21.0398
             53      -0.933333              0       -21.0398
             54      -0.933333              0       -21.0398
             55      -0.933333              0       -21.0398
             56      -0.933333              0       -21.0398
             57      -0.933333              0       -21.0398
             58      -0.933333              0       -21.0398
             59      -0.933333              0       -21.0398
             60      -0.933333              0       -21.0398
             61      -0.933333              0       -21.0398
             62      -0.933333              0       -21.0398
             63      -0.933333              0       -21.0398
             64      -0.933333              0       -21.0398
             65      -0.933333              0       -21.0398
             66      -0.933333              0       -21.0398
             67      -0.933333              0       -21.0398
             68      -0.933333              0       -21.0398
             69      -0.933333              0       -21.0398
             70      -0.933333              0       -21.0398
             71      -0.933333              0       -21.0398
             72      -0.933333              0       -21.0398
             73      -0.933333              0       -21.0398
             74      -0.933333              0       -21.0398
             75      -0.933333              0       -21.0398
             76      -0.933333              0       -21.0398
             77      -0.933333              0       -21.0398
             78      -0.933333              0       -21.0398
             79      -0.933333              0       -21.0398
             80      -0.933333              0       -21.0398
             81      -0.933333              0       -21.0398
             82      -0.933333              0       -21.0398
             83      -0.933333              0       -21.0398
             84      -0.933333              0       -21.0398
             85      -0.933333              0       -21.0398
             86      -0.933333              0       -21.0398
             87      -0.933333              0       -21.0398
             88      -0.933333              0       -21.0398
             89      -0.933333              0       -21.0398
             90      -0.933333              0       -21.0398
             91      -0.933333              0       -21.0398
             92      -0.933333              0       -21.0398
             93      -0.933333              0       -21.0398
             94      -0.933333              0       -21.0398
             95      -0.933333              0       -21.0398
             96      -0.933333              0       -21.0398
             97      -0.933333              0       -21.0398
             98      -0.933333              0       -21.0398
             99      -0.933333              0       -21.0398
            100      -0.933333              0       -21.0398
            101      -0.933333              0       -21.0398
            102      -0.933333              0       -21.0398
            103      -0.933333              0       -21.0398
            104      -0.933333              0       -21.0398
            105      -0.933333              0       -21.0398
            106      -0.933333              0       -21.0398
            107      -0.933333              0       -21.0398
            108      -0.933333              0       -21.0398
            109      -0.933333              0       -21.0398
            110      -0.933333              0       -21.0398
            111      -0.933333              0       -21.0398
            112      -0.933333              0       -21.0398
            113      -0.933333              0       -21.0398
            114      -0.933333              0       -21.0398
            115      -0.933333              0       -21.0398
            116      -0.933333              0       -21.0398
            117      -0.933333              0       -21.0398
            118      -0.933333              0       -21.0398
            119      -0.933333              0       -21.0398
            120      -0.933333              0       -21.0398
            121      -0.933333              0       -21.0398
            122      -0.933333              0       -21.0398
            123      -0.933333              0       -21.0398
            124      -0.933333              0       -21.0398
            125      -0.933333              0       -21.0398
            126      -0.933333              0       -21.0398
            127      -0.933333              0       -21.0398
            128      -0.933333              0       -21.0398
            129      -0.933333              0       -21.0398
            130      -0.933333              0       -21.0398
            131      -0.933333              0       -21.0398
            132      -0.933333              0       -21.0398
            133      -0.933333              0       -21.0398
            134      -0.933333              0       -21.0398
            135      -0.933333              0       -21.0398
            136      -0.933333              0       -21.0398
            137      -0.933333              0       -21.0398
            138      -0.933333              0       -21.0398
            139      -0.933333              0       -21.0398
            140      -0.933333              0       -21.0398
            141      -0.933333              0       -21.0398
            142      -0.933333              0       -21.0398
            143      -0.933333              0       -21.0398
            144      -0.933333              0       -21.0398
            145      -0.933333              0       -21.0398
            146      -0.933333              0       -21.0398
            147      -0.933333              0       -21.0398
            148      -0.933333              0       -21.0398
            149      -0.933333              0       -21.0398
            150      -0.933333              0       -21.0398
            151      -0.933333              0       -21.0398
            152      -0.933333              0       -21.0398
            153      -0.933333              0       -21.0398
            154      -0.933333              0       -21.0398
            155      -0.933333              0       -21.0398
            156      -0.933333              0       -21.0398
            157      -0.933333              0       -21.0398
            158      -0.933333              0       -21.0398
            159      -0.933333              0       -21.0398
            160      -0.933333              0       -21.0398
            161      -0.933333              0       -21.0398
            162      -0.933333              0       -21.0398
            163      -0.933333              0       -21.0398
            164      -0.933333              0       -21.0398
            165      -0.933333              0       -21.0398
            166      -0.933333              0       -21.0398
            167      -0.933333              0       -21.0398
            168      -0.933333              0       -21.0398
            169      -0.933333              0       -21.0398
            170      -0.933333              0       -21.0398
            171      -0.933333              0       -21.0398
            172      -0.933333              0       -21.0398
            173      -0.933333              0       -21.0398
            174      -0.933333              0       -21.0398
            175      -0.933333              0       -21.0398
            176      -0.933333              0       -21.0398
            177      -0.933333              0       -21.0398
            178      -0.933333              0       -21.0398
            179      -0.933333              0       -21.0398
            180      -0.933333              0       -21.0398
            181      -0.933333              0       -21.0398
            182      -0.933333              0       -21.0398
            183      -0.933333              0       -21.0398
            184      -0.933333              0       -21.0398
            185      -0.933333              0       -21.0398
            186      -0.933333              0       -21.0398
            187      -0.933333              0       -21.0398
            188      -0.933333              0       -21.0398
            189      -0.933333              0       -21.0398
            190      -0.933333              0       -21.0398
            191      -0.933333              0       -21.0398
            192      -0.933333              0       -21.0398
            193      -0.933333              0       -21.0398
            194      -0.933333              0       -21.0398
            195      -0.933333              0       -21.0398
            196      -0.933333              0       -21.0398
            197      -0.933333              0       -21.0398
            198      -0.933333              0       -21.0398
            199      -0.933333              0       -21.0398
            200      -0.933333              0       -21.0398
            201      -0.933333              0       -21.0398
            202      -0.933333              0       -21.0398
            203      -0.933333              0       -21.0398
            204      -0.933333              0       -21.0398
            205      -0.933333              0       -21.0398
            206      -0.933333              0       -21.0398
            207      -0.933333              0       -21.0398
            208      -0.933333              0       -21.0398
            209      -0.933333              0       -21.0398
            210      -0.933333              0       -21.0398
            211      -0.933333              0       -21.0398
            212      -0.933333              0       -21.0398
            213      -0.933333              0       -21.0398
            214      -0.933333              0       -21.0398
            215      -0.933333              0       -21.0398
            216      -0.933333              0       -21.0398
            217      -0.933333              0       -21.0398
            218      -0.933333              0       -21.0398
            219      -0.933333              0       -21.0398
            220      -0.933333              0       -21.0398
            221      -0.933333              0       -21.0398
            222      -0.933333              0       -21.0398
            223      -0.933333              0       -21.0398
            224      -0.933333              0       -21.0398
            225      -0.933333              0       -21.0398
            226      -0.933333              0       -21.0398
            227      -0.933333              0       -21.0398
            228      -0.933333              0       -21.0398
            229      -0.933333              0       -21.0398
            230      -0.933333              0       -21.0398
            231      -0.933333              0       -21.0398
            232      -0.933333              0       -21.0398
            233      -0.933333              0       -21.0398
            234      -0.933333              0       -21.0398
            235      -0.933333              0       -21.0398
            236      -0.933333              0       -21.0398
            237      -0.933333              0       -21.0398
            238      -0.933333              0       -21.0398
            239      -0.933333              0       -21.0398
            240      -0.933333              0       -21.0398
            241      -0.933333              0       -21.0398
            242      -0.933333              0       -21.0398
            243      -0.933333              0       -21.0398
            244      -0.933333              0       -21.0398
            245      -0.933333              0       -21.0398
            246      -0.933333              0       -21.0398
            247      -0.933333              0       -21.0398
            248      -0.933333              0       -21.0398
            249      -0.933333              0       -21.0398
            250      -0.933333              0       -21.0398
            251      -0.933333              0       -21.0398
            252      -0.933333              0       -21.0398
            253      -0.933333              0       -21.0398
            254      -0.933333              0       -21.0398
            255      -0.933333              0       -21.0398
            256      -0.933333              0       -21.0398
            257      -0.933333              0       -21.0398
            258      -0.933333              0       -21.0398
            259      -0.933333              0       -21.0398
            260      -0.933333              0       -21.0398
            261      -0.933333              0       -21.0398
            262      -0.933333              0       -21.0398
            263      -0.933333              0       -21.0398
            264      -0.933333              0       -21.0398
            265      -0.933333              0       -21.0398
            266      -0.933333              0       -21.0398
            267      -0.933333              0       -21.0398
            268      -0.933333              0       -21.0398
            269      -0.933333              0       -21.0398
            270      -0.933333              0       -21.0398
            271      -0.933333              0       -21.0398
            272      -0.933333              0       -21.0398
            273      -0.933333              0       -21.0398
            274      -0.933333              0       -21.0398
            275      -0.933333              0       -21.0398
            276      -0.933333              0       -21.0398
            277      -0.933333              0       -21.0398
            278      -0.933333              0       -21.0398
            279      -0.933333              0       -21.0398
            280      -0.933333              0       -21.0398
            281      -0.933333              0       -21.0398
            282      -0.933333              0       -21.0398
            283      -0.933333              0       -21.0398
            284      -0.933333              0       -21.0398
            285      -0.933333              0       -21.0398
            286      -0.933333              0       -21.0398
            287      -0.933333              0       -21.0398
            288      -0.933333              0       -21.0398
            289      -0.933333              0       -21.0398
            290      -0.933333              0       -21.0398
            291      -0.933333              0       -21.0398
            292      -0.933333              0       -21.0398
            293      -0.933333              0       -21.0398
            294      -0.933333              0       -21.0398
            295      -0.933333              0       -21.0398
            296      -0.933333              0       -21.0398
            297      -0.933333              0       -21.0398
            298      -0.933333              0       -21.0398
            299      -0.933333              0       -21.0398
            300      -0.933333              0       -21.0398
            301      -0.933333              0       -21.0398
            302      -0.933333              0       -21.0398
            303      -0.933333              0       -21.0398
            304      -0.933333              0       -21.0398
            305      -0.933333              0       -21.0398
            306      -0.933333              0       -21.0398
            307      -0.933333              0       -21.0398
            308      -0.933333              0       -21.0398
            309      -0.933333              0       -21.0398
            310      -0.933333              0       -21.0398
            311      -0.933333              0       -21.0398
            312      -0.933333              0       -21.0398
            313      -0.933333              0       -21.0398
            314      -0.933333              0       -21.0398
            315      -0.933333              0       -21.0398
            316      -0.933333              0       -21.0398
            317      -0.933333              0       -21.0398
            318      -0.933333              0       -21.0398
            319      -0.933333              0       -21.0398
            320      -0.933333              0       -21.0398
            321      -0.933333              0       -21.0398
            322      -0.933333              0       -21.0398
            323      -0.933333              0       -21.0398
            324      -0.933333              0       -21.0398
            325      -0.933333              0       -21.0398
