seed=1725278593
seed2=268
L=10
nstep=10000
tw=1
Jz=0
eps=5
alpha=0
Sz=0
pbc=0
type=1
beta=10
tau=0.001
Jxy=1
wc=10
ss=1
              1           -0.6              0       -13.6309
              2           -0.9              0       -14.6566
              3       -1.06667              0       -14.8633
              4          -1.15              0       -14.9332
              5          -1.24              0       -15.0034
              6       -1.26667              0       -15.2495
              7       -1.31429              0       -15.5489
              8          -1.35              0       -15.8191
              9       -1.37778              0       -16.0292
             10           -1.4              0       -16.1986
             11       -1.45455              0       -16.3581
             12           -1.5              0       -16.4983
             13       -1.55385              0       -16.6116
             14       -1.61429              0        -16.701
             15       -1.65333              0        -16.778
             16        -1.6875              0       -16.8498
             17       -1.72941              0       -16.9124
             18       -1.78889              0         -16.97
             19           -1.8              0       -17.0245
             20          -1.81              0       -17.0758
             21       -1.82857              0       -17.1192
             22       -1.83636              0       -17.1628
             23       -1.83478              0       -17.2051
             24       -1.81667              0       -17.2452
             25         -1.808              0        -17.284
             26       -1.79231              0       -17.3313
             27       -1.77778              0       -17.3755
             28       -1.77143              0       -17.4241
             29       -1.76552              0       -17.4693
             30          -1.78              0       -17.5021
             31        -1.7871              0       -17.5353
             32       -1.79375              0       -17.5601
             33       -1.78182              0       -17.5932
             34       -1.77647              0       -17.6111
             35       -1.77143              0        -17.628
             36       -1.76667              0       -17.6511
             37       -1.75135              0       -17.6825
             38       -1.73684              0       -17.7109
             39       -1.71795              0       -17.7365
             40           -1.7              0       -17.7608
             41       -1.67805              0       -17.7866
             42       -1.65714              0       -17.8112
             43       -1.64186              0       -17.8263
             44       -1.63182              0       -17.8405
             45       -1.61778              0       -17.8546
             46       -1.60435              0       -17.8681
             47       -1.59149              0       -17.8811
             48         -1.575              0       -17.9011
             49        -1.5551              0       -17.9208
             50         -1.548              0       -17.9372
             51       -1.52941              0       -17.9546
             52       -1.52941              0       -17.9546
             53       -1.52941              0       -17.9546
             54       -1.52941              0       -17.9546
             55       -1.52941              0       -17.9546
             56       -1.52941              0       -17.9546
             57       -1.52941              0       -17.9546
             58       -1.52941              0       -17.9546
             59       -1.52941              0       -17.9546
             60       -1.52941              0       -17.9546
             61       -1.52941              0       -17.9546
             62       -1.52941              0       -17.9546
             63       -1.52941              0       -17.9546
             64       -1.52941              0       -17.9546
             65       -1.52941              0       -17.9546
             66       -1.52941              0       -17.9546
             67       -1.52941              0       -17.9546
             68       -1.52941              0       -17.9546
             69       -1.52941              0       -17.9546
             70       -1.52941              0       -17.9546
             71       -1.52941              0       -17.9546
             72       -1.52941              0       -17.9546
             73       -1.52941              0       -17.9546
             74       -1.52941              0       -17.9546
             75       -1.52941              0       -17.9546
             76       -1.52941              0       -17.9546
             77       -1.52941              0       -17.9546
             78       -1.52941              0       -17.9546
             79       -1.52941              0       -17.9546
             80       -1.52941              0       -17.9546
             81       -1.52941              0       -17.9546
             82       -1.52941              0       -17.9546
             83       -1.52941              0       -17.9546
             84       -1.52941              0       -17.9546
             85       -1.52941              0       -17.9546
             86       -1.52941              0       -17.9546
             87       -1.52941              0       -17.9546
             88       -1.52941              0       -17.9546
             89       -1.52941              0       -17.9546
             90       -1.52941              0       -17.9546
             91       -1.52941              0       -17.9546
             92       -1.52941              0       -17.9546
             93       -1.52941              0       -17.9546
             94       -1.52941              0       -17.9546
             95       -1.52941              0       -17.9546
             96       -1.52941              0       -17.9546
             97       -1.52941              0       -17.9546
             98       -1.52941              0       -17.9546
             99       -1.52941              0       -17.9546
            100       -1.52941              0       -17.9546
            101       -1.52941              0       -17.9546
            102       -1.52941              0       -17.9546
            103       -1.52941              0       -17.9546
            104       -1.52941              0       -17.9546
            105       -1.52941              0       -17.9546
            106       -1.52941              0       -17.9546
            107       -1.52941              0       -17.9546
            108       -1.52941              0       -17.9546
            109       -1.52941              0       -17.9546
            110       -1.52941              0       -17.9546
            111       -1.52941              0       -17.9546
            112       -1.52941              0       -17.9546
            113       -1.52941              0       -17.9546
            114       -1.52941              0       -17.9546
            115       -1.52941              0       -17.9546
            116       -1.52941              0       -17.9546
            117       -1.52941              0       -17.9546
            118       -1.52941              0       -17.9546
            119       -1.52941              0       -17.9546
            120       -1.52941              0       -17.9546
            121       -1.52941              0       -17.9546
            122       -1.52941              0       -17.9546
            123       -1.52941              0       -17.9546
            124       -1.52941              0       -17.9546
            125       -1.52941              0       -17.9546
            126       -1.52941              0       -17.9546
            127       -1.52941              0       -17.9546
            128       -1.52941              0       -17.9546
            129       -1.52941              0       -17.9546
            130       -1.52941              0       -17.9546
            131       -1.52941              0       -17.9546
            132       -1.52941              0       -17.9546
            133       -1.52941              0       -17.9546
            134       -1.52941              0       -17.9546
            135       -1.52941              0       -17.9546
            136       -1.52941              0       -17.9546
            137       -1.52941              0       -17.9546
            138       -1.52941              0       -17.9546
            139       -1.52941              0       -17.9546
            140       -1.52941              0       -17.9546
            141       -1.52941              0       -17.9546
            142       -1.52941              0       -17.9546
            143       -1.52941              0       -17.9546
            144       -1.52941              0       -17.9546
            145       -1.52941              0       -17.9546
            146       -1.52941              0       -17.9546
            147       -1.52941              0       -17.9546
            148       -1.52941              0       -17.9546
            149       -1.52941              0       -17.9546
            150       -1.52941              0       -17.9546
            151       -1.52941              0       -17.9546
            152       -1.52941              0       -17.9546
            153       -1.52941              0       -17.9546
            154       -1.52941              0       -17.9546
            155       -1.52941              0       -17.9546
            156       -1.52941              0       -17.9546
            157       -1.52941              0       -17.9546
            158       -1.52941              0       -17.9546
            159       -1.52941              0       -17.9546
            160       -1.52941              0       -17.9546
            161       -1.52941              0       -17.9546
            162       -1.52941              0       -17.9546
            163       -1.52941              0       -17.9546
            164       -1.52941              0       -17.9546
            165       -1.52941              0       -17.9546
            166       -1.52941              0       -17.9546
            167       -1.52941              0       -17.9546
            168       -1.52941              0       -17.9546
            169       -1.52941              0       -17.9546
            170       -1.52941              0       -17.9546
            171       -1.52941              0       -17.9546
            172       -1.52941              0       -17.9546
            173       -1.52941              0       -17.9546
            174       -1.52941              0       -17.9546
            175       -1.52941              0       -17.9546
            176       -1.52941              0       -17.9546
            177       -1.52941              0       -17.9546
            178       -1.52941              0       -17.9546
            179       -1.52941              0       -17.9546
            180       -1.52941              0       -17.9546
            181       -1.52941              0       -17.9546
            182       -1.52941              0       -17.9546
            183       -1.52941              0       -17.9546
            184       -1.52941              0       -17.9546
            185       -1.52941              0       -17.9546
            186       -1.52941              0       -17.9546
            187       -1.52941              0       -17.9546
            188       -1.52941              0       -17.9546
            189       -1.52941              0       -17.9546
            190       -1.52941              0       -17.9546
            191       -1.52941              0       -17.9546
            192       -1.52941              0       -17.9546
            193       -1.52941              0       -17.9546
            194       -1.52941              0       -17.9546
            195       -1.52941              0       -17.9546
            196       -1.52941              0       -17.9546
            197       -1.52941              0       -17.9546
            198       -1.52941              0       -17.9546
            199       -1.52941              0       -17.9546
            200       -1.52941              0       -17.9546
            201       -1.52941              0       -17.9546
            202       -1.52941              0       -17.9546
            203       -1.52941              0       -17.9546
            204       -1.52941              0       -17.9546
            205       -1.52941              0       -17.9546
            206       -1.52941              0       -17.9546
            207       -1.52941              0       -17.9546
            208       -1.52941              0       -17.9546
            209       -1.52941              0       -17.9546
            210       -1.52941              0       -17.9546
            211       -1.52941              0       -17.9546
            212       -1.52941              0       -17.9546
            213       -1.52941              0       -17.9546
            214       -1.52941              0       -17.9546
            215       -1.52941              0       -17.9546
            216       -1.52941              0       -17.9546
            217       -1.52941              0       -17.9546
            218       -1.52941              0       -17.9546
            219       -1.52941              0       -17.9546
            220       -1.52941              0       -17.9546
            221       -1.52941              0       -17.9546
            222       -1.52941              0       -17.9546
            223       -1.52941              0       -17.9546
            224       -1.52941              0       -17.9546
            225       -1.52941              0       -17.9546
            226       -1.52941              0       -17.9546
            227       -1.52941              0       -17.9546
            228       -1.52941              0       -17.9546
            229       -1.52941              0       -17.9546
            230       -1.52941              0       -17.9546
            231       -1.52941              0       -17.9546
            232       -1.52941              0       -17.9546
            233       -1.52941              0       -17.9546
            234       -1.52941              0       -17.9546
            235       -1.52941              0       -17.9546
            236       -1.52941              0       -17.9546
            237       -1.52941              0       -17.9546
            238       -1.52941              0       -17.9546
            239       -1.52941              0       -17.9546
            240       -1.52941              0       -17.9546
            241       -1.52941              0       -17.9546
            242       -1.52941              0       -17.9546
            243       -1.52941              0       -17.9546
            244       -1.52941              0       -17.9546
            245       -1.52941              0       -17.9546
            246       -1.52941              0       -17.9546
            247       -1.52941              0       -17.9546
            248       -1.52941              0       -17.9546
            249       -1.52941              0       -17.9546
            250       -1.52941              0       -17.9546
            251       -1.52941              0       -17.9546
            252       -1.52941              0       -17.9546
            253       -1.52941              0       -17.9546
            254       -1.52941              0       -17.9546
            255       -1.52941              0       -17.9546
            256       -1.52941              0       -17.9546
            257       -1.52941              0       -17.9546
            258       -1.52941              0       -17.9546
            259       -1.52941              0       -17.9546
            260       -1.52941              0       -17.9546
            261       -1.52941              0       -17.9546
            262       -1.52941              0       -17.9546
            263       -1.52941              0       -17.9546
            264       -1.52941              0       -17.9546
            265       -1.52941              0       -17.9546
            266       -1.52941              0       -17.9546
            267       -1.52941              0       -17.9546
            268       -1.52941              0       -17.9546
            269       -1.52941              0       -17.9546
            270       -1.52941              0       -17.9546
            271       -1.52941              0       -17.9546
            272       -1.52941              0       -17.9546
            273       -1.52941              0       -17.9546
            274       -1.52941              0       -17.9546
            275       -1.52941              0       -17.9546
            276       -1.52941              0       -17.9546
            277       -1.52941              0       -17.9546
            278       -1.52941              0       -17.9546
            279       -1.52941              0       -17.9546
            280       -1.52941              0       -17.9546
            281       -1.52941              0       -17.9546
            282       -1.52941              0       -17.9546
            283       -1.52941              0       -17.9546
            284       -1.52941              0       -17.9546
            285       -1.52941              0       -17.9546
            286       -1.52941              0       -17.9546
            287       -1.52941              0       -17.9546
            288       -1.52941              0       -17.9546
            289       -1.52941              0       -17.9546
            290       -1.52941              0       -17.9546
            291       -1.52941              0       -17.9546
            292       -1.52941              0       -17.9546
            293       -1.52941              0       -17.9546
            294       -1.52941              0       -17.9546
            295       -1.52941              0       -17.9546
            296       -1.52941              0       -17.9546
            297       -1.52941              0       -17.9546
            298       -1.52941              0       -17.9546
            299       -1.52941              0       -17.9546
            300       -1.52941              0       -17.9546
            301       -1.52941              0       -17.9546
            302       -1.52941              0       -17.9546
            303       -1.52941              0       -17.9546
            304       -1.52941              0       -17.9546
            305       -1.52941              0       -17.9546
            306       -1.52941              0       -17.9546
            307       -1.52941              0       -17.9546
            308       -1.52941              0       -17.9546
            309       -1.52941              0       -17.9546
            310       -1.52941              0       -17.9546
            311       -1.52941              0       -17.9546
            312       -1.52941              0       -17.9546
            313       -1.52941              0       -17.9546
            314       -1.52941              0       -17.9546
            315       -1.52941              0       -17.9546
            316       -1.52941              0       -17.9546
            317       -1.52941              0       -17.9546
            318       -1.52941              0       -17.9546
            319       -1.52941              0       -17.9546
            320       -1.52941              0       -17.9546
            321       -1.52941              0       -17.9546
            322       -1.52941              0       -17.9546
            323       -1.52941              0       -17.9546
            324       -1.52941              0       -17.9546
            325       -1.52941              0       -17.9546
