seed=1725239196
seed2=234
L=10
nstep=10000
tw=1
Jz=0
eps=5
alpha=0
Sz=0
pbc=0
type=1
beta=10
tau=0.001
Jxy=1
wc=10
ss=1
              1           -0.4              0       -14.9618
              2           -0.5              0       -17.8245
              3           -0.6              0       -19.0391
              4           -0.7              0       -19.6106
              5          -0.76              0       -19.9769
              6           -0.8              0       -20.2211
              7      -0.885714              0       -20.3721
              8          -0.95              0       -20.4854
              9      -0.977778              0       -20.6775
             10          -1.02              0        -20.824
             11       -1.05455              0       -20.9426
             12       -1.06667              0       -21.0554
             13       -1.09231              0        -21.146
             14       -1.11429              0       -21.2237
             15          -1.12              0       -21.3016
             16        -1.1125              0       -21.3748
             17       -1.08235              0       -21.4458
             18       -1.05556              0       -21.5277
             19       -1.03158              0       -21.5882
             20       -1.03158              0       -21.5882
             21       -1.03158              0       -21.5882
             22       -1.03158              0       -21.5882
             23       -1.03158              0       -21.5882
             24       -1.03158              0       -21.5882
             25       -1.03158              0       -21.5882
             26       -1.03158              0       -21.5882
             27       -1.03158              0       -21.5882
             28       -1.03158              0       -21.5882
             29       -1.03158              0       -21.5882
             30       -1.03158              0       -21.5882
             31       -1.03158              0       -21.5882
             32       -1.03158              0       -21.5882
             33       -1.03158              0       -21.5882
             34       -1.03158              0       -21.5882
             35       -1.03158              0       -21.5882
             36       -1.03158              0       -21.5882
             37       -1.03158              0       -21.5882
             38       -1.03158              0       -21.5882
             39       -1.03158              0       -21.5882
             40       -1.03158              0       -21.5882
             41       -1.03158              0       -21.5882
             42       -1.03158              0       -21.5882
             43       -1.03158              0       -21.5882
             44       -1.03158              0       -21.5882
             45       -1.03158              0       -21.5882
             46       -1.03158              0       -21.5882
             47       -1.03158              0       -21.5882
             48       -1.03158              0       -21.5882
             49       -1.03158              0       -21.5882
             50       -1.03158              0       -21.5882
             51       -1.03158              0       -21.5882
             52       -1.03158              0       -21.5882
             53       -1.03158              0       -21.5882
             54       -1.03158              0       -21.5882
             55       -1.03158              0       -21.5882
             56       -1.03158              0       -21.5882
             57       -1.03158              0       -21.5882
             58       -1.03158              0       -21.5882
             59       -1.03158              0       -21.5882
             60       -1.03158              0       -21.5882
             61          -1.01              0       -21.8717
             62      -0.990476              0       -22.1281
             63      -0.972727              0       -22.3613
             64      -0.956522              0       -22.5742
             65      -0.941667              0       -22.7693
             66         -0.928              0       -22.9537
             67      -0.923077              0       -23.1215
             68      -0.918519              0       -23.2768
             69      -0.907143              0       -23.4185
             70      -0.903448              0       -23.5496
             71           -0.9              0       -23.6772
             72      -0.903226              0       -23.7978
             73       -0.89375              0       -23.9168
             74      -0.878788              0       -24.0308
             75      -0.858824              0       -24.1402
             76          -0.84              0       -24.2433
             77      -0.816667              0       -24.3413
             78      -0.794595              0        -24.434
             79      -0.773684              0       -24.5218
             80      -0.753846              0       -24.6052
             81         -0.735              0       -24.6843
             82      -0.717073              0       -24.7596
             83           -0.7              0       -24.8313
             84      -0.683721              0       -24.8997
             85      -0.668182              0       -24.9649
             86      -0.653333              0       -25.0273
             87       -0.63913              0        -25.087
             88      -0.625532              0       -25.1441
             89      -0.616667              0       -25.1979
             90      -0.608163              0       -25.2495
             91         -0.604              0        -25.295
             92      -0.603922              0        -25.338
             93      -0.607692              0        -25.377
             94      -0.607547              0       -25.4176
             95      -0.607407              0       -25.4567
             96      -0.607273              0       -25.4943
             97      -0.607143              0       -25.5307
             98      -0.607018              0       -25.5656
             99      -0.606897              0       -25.5993
            100       -0.60678              0       -25.6319
            101          -0.61              0       -25.6633
            102      -0.613115              0       -25.6937
            103      -0.619355              0        -25.726
            104      -0.625397              0       -25.7572
            105       -0.63125              0       -25.7853
            106      -0.636923              0       -25.8116
            107      -0.636364              0       -25.8398
            108      -0.641791              0       -25.8658
            109      -0.644118              0       -25.8909
            110      -0.643478              0       -25.9162
            111      -0.637143              0       -25.9423
            112      -0.630986              0       -25.9648
            113      -0.627778              0       -25.9853
            114      -0.621918              0       -26.0067
            115      -0.616216              0       -26.0299
            116         -0.616              0       -26.0509
            117      -0.618421              0       -26.0712
            118      -0.618182              0       -26.0912
            119      -0.620513              0       -26.1103
            120      -0.625316              0       -26.1254
            121          -0.63              0       -26.1416
            122      -0.632099              0       -26.1582
            123      -0.636585              0       -26.1734
            124      -0.638554              0       -26.1889
            125      -0.638095              0       -26.2028
            126          -0.64              0       -26.2164
            127       -0.64186              0       -26.2278
            128      -0.645977              0       -26.2381
            129          -0.65              0        -26.248
            130      -0.651685              0       -26.2564
            131      -0.653333              0       -26.2676
            132      -0.652747              0       -26.2828
            133      -0.652174              0       -26.2977
            134      -0.651613              0       -26.3123
            135      -0.651064              0       -26.3266
            136      -0.648421              0       -26.3408
            137       -0.64375              0        -26.353
            138      -0.641237              0       -26.3658
            139      -0.638776              0       -26.3784
            140      -0.636364              0       -26.3907
            141         -0.634              0       -26.4028
            142      -0.631683              0       -26.4147
            143      -0.627451              0       -26.4272
            144      -0.627184              0       -26.4358
            145      -0.628846              0       -26.4436
            146      -0.630476              0       -26.4524
            147      -0.632075              0       -26.4609
            148      -0.635514              0       -26.4674
            149      -0.637037              0       -26.4756
            150      -0.638532              0       -26.4836
            151          -0.64              0       -26.4915
            152       -0.63964              0       -26.5009
            153        -0.6375              0       -26.5113
            154      -0.635398              0        -26.521
            155      -0.633333              0       -26.5306
            156      -0.629565              0       -26.5405
            157      -0.625862              0       -26.5502
            158      -0.622222              0       -26.5597
            159      -0.620339              0       -26.5659
            160      -0.620168              0       -26.5736
            161          -0.62              0       -26.5811
            162      -0.621488              0       -26.5892
            163      -0.622951              0       -26.5972
            164       -0.62439              0       -26.6045
            165      -0.625806              0       -26.6116
            166        -0.6288              0       -26.6183
            167      -0.631746              0       -26.6237
            168      -0.633071              0       -26.6281
            169      -0.634375              0       -26.6324
            170      -0.637209              0       -26.6364
            171          -0.64              0       -26.6412
            172      -0.641221              0       -26.6463
            173      -0.640909              0       -26.6516
            174      -0.637594              0       -26.6597
            175      -0.634328              0       -26.6678
            176      -0.631111              0       -26.6757
            177      -0.627941              0       -26.6835
            178      -0.624818              0       -26.6912
            179      -0.623188              0       -26.6987
            180      -0.621583              0       -26.7062
            181      -0.621429              0       -26.7118
            182      -0.624113              0       -26.7169
            183      -0.628169              0       -26.7205
            184      -0.632168              0       -26.7237
            185      -0.633333              0       -26.7278
            186      -0.635862              0       -26.7309
            187      -0.636986              0        -26.736
            188      -0.638095              0        -26.741
            189      -0.639189              0        -26.746
            190      -0.637584              0       -26.7517
            191         -0.636              0       -26.7574
            192      -0.634437              0       -26.7629
            193      -0.630263              0       -26.7696
            194      -0.626144              0       -26.7761
            195      -0.622078              0       -26.7826
            196      -0.619355              0       -26.7889
            197      -0.617949              0       -26.7943
            198      -0.616561              0       -26.7995
            199       -0.61519              0       -26.8047
            200      -0.616352              0       -26.8095
            201       -0.61625              0       -26.8142
            202      -0.616149              0       -26.8188
            203      -0.616049              0       -26.8238
            204      -0.615951              0       -26.8287
            205      -0.617073              0       -26.8322
            206       -0.61697              0       -26.8361
            207      -0.618072              0       -26.8397
            208      -0.617964              0        -26.844
            209      -0.617857              0       -26.8476
            210      -0.618935              0       -26.8506
            211      -0.618824              0       -26.8546
            212      -0.618713              0       -26.8584
            213      -0.618605              0       -26.8621
            214      -0.618497              0       -26.8668
            215       -0.61954              0       -26.8714
            216      -0.620571              0        -26.876
            217      -0.619318              0       -26.8807
            218      -0.618079              0       -26.8854
            219       -0.61573              0         -26.89
            220      -0.613408              0       -26.8945
            221      -0.611111              0       -26.8991
            222      -0.607735              0       -26.9039
            223      -0.604396              0       -26.9086
            224      -0.602186              0       -26.9133
            225           -0.6              0       -26.9179
            226      -0.598919              0       -26.9196
            227           -0.6              0       -26.9215
            228       -0.60107              0       -26.9232
            229      -0.601064              0       -26.9255
            230      -0.601058              0       -26.9279
            231           -0.6              0       -26.9303
            232      -0.598953              0       -26.9331
            233      -0.598958              0       -26.9355
            234      -0.597927              0       -26.9379
            235      -0.595876              0       -26.9407
            236      -0.593846              0       -26.9434
            237      -0.592857              0       -26.9458
            238      -0.591878              0       -26.9482
            239      -0.590909              0       -26.9506
            240      -0.590955              0       -26.9536
            241          -0.59              0       -26.9568
            242      -0.589055              0         -26.96
            243      -0.588119              0       -26.9632
            244      -0.588177              0       -26.9667
            245      -0.587255              0       -26.9685
            246      -0.586341              0       -26.9721
            247      -0.586408              0       -26.9742
            248      -0.586473              0       -26.9764
            249      -0.586538              0       -26.9785
            250       -0.58756              0       -26.9788
            251      -0.586667              0       -26.9791
            252      -0.585782              0       -26.9793
            253      -0.584906              0       -26.9819
            254      -0.583099              0       -26.9856
            255      -0.581308              0       -26.9878
            256      -0.578605              0       -26.9915
            257      -0.575926              0       -26.9951
            258      -0.573272              0       -26.9987
            259      -0.570642              0       -27.0022
            260      -0.568037              0       -27.0057
            261      -0.565455              0       -27.0092
            262      -0.562896              0       -27.0127
            263       -0.56036              0       -27.0161
            264      -0.557848              0       -27.0195
            265      -0.555357              0       -27.0228
            266      -0.553778              0       -27.0258
            267      -0.553097              0       -27.0284
            268      -0.551542              0       -27.0312
            269          -0.55              0       -27.0341
            270      -0.548472              0       -27.0367
            271      -0.546957              0       -27.0394
            272      -0.545455              0        -27.042
            273      -0.543966              0       -27.0443
            274      -0.542489              0       -27.0465
            275       -0.54188              0       -27.0485
            276      -0.541277              0       -27.0497
            277      -0.540678              0       -27.0509
            278      -0.540928              0       -27.0523
            279      -0.542017              0       -27.0537
            280      -0.542259              0       -27.0551
            281        -0.5425              0       -27.0564
            282      -0.541079              0       -27.0588
            283      -0.539669              0       -27.0616
            284      -0.538272              0       -27.0643
            285      -0.536885              0        -27.067
            286      -0.536327              0       -27.0685
            287      -0.535772              0       -27.0702
            288      -0.535223              0       -27.0722
            289      -0.534677              0        -27.074
            290      -0.533333              0        -27.076
            291        -0.5328              0       -27.0777
            292      -0.532271              0       -27.0798
            293      -0.531746              0       -27.0815
            294      -0.530435              0       -27.0839
            295      -0.529134              0       -27.0862
            296      -0.527843              0       -27.0886
            297      -0.525781              0       -27.0912
            298      -0.523735              0       -27.0939
            299      -0.521705              0       -27.0965
            300      -0.519691              0       -27.0991
            301      -0.517692              0       -27.1017
            302      -0.515709              0       -27.1043
            303       -0.51374              0       -27.1068
            304      -0.511787              0       -27.1093
            305      -0.509848              0       -27.1118
            306      -0.507925              0       -27.1143
            307      -0.506015              0       -27.1168
            308       -0.50412              0       -27.1193
            309      -0.503731              0       -27.1209
            310      -0.504833              0        -27.122
            311      -0.505926              0        -27.123
            312      -0.505926              0        -27.123
            313      -0.505926              0        -27.123
            314      -0.505926              0        -27.123
            315      -0.505926              0        -27.123
            316      -0.505926              0        -27.123
            317      -0.505926              0        -27.123
            318      -0.505926              0        -27.123
            319      -0.505926              0        -27.123
            320      -0.505926              0        -27.123
            321      -0.505926              0        -27.123
            322      -0.505926              0        -27.123
            323      -0.505926              0        -27.123
            324      -0.505926              0        -27.123
            325      -0.505926              0        -27.123
