seed=1725278593
seed2=318
L=10
nstep=10000
tw=1
Jz=0
eps=5
alpha=0
Sz=0
pbc=0
type=1
beta=10
tau=0.001
Jxy=1
wc=10
ss=1
              1           -nan           -nan           -nan
              2           -nan           -nan           -nan
              3           -nan           -nan           -nan
              4           -nan           -nan           -nan
              5           -nan           -nan           -nan
              6           -nan           -nan           -nan
              7           -nan           -nan           -nan
              8           -nan           -nan           -nan
              9           -nan           -nan           -nan
             10           -nan           -nan           -nan
             11           -nan           -nan           -nan
             12           -nan           -nan           -nan
             13           -nan           -nan           -nan
             14           -nan           -nan           -nan
             15           -nan           -nan           -nan
             16           -nan           -nan           -nan
             17           -nan           -nan           -nan
             18           -nan           -nan           -nan
             19           -2.2              0        -17.343
             20             -2              0       -18.4232
             21       -1.93333              0       -18.8366
             22          -1.75              0       -19.1884
             23           -1.6              0         -19.44
             24       -1.46667              0       -19.6316
             25       -1.37143              0       -19.7684
             26         -1.325              0       -19.8692
             27       -1.26667              0       -19.9527
             28          -1.24              0       -19.9925
             29       -1.23636              0       -20.0242
             30       -1.23333              0       -20.0454
             31       -1.21538              0       -20.0636
             32       -1.21429              0       -20.0779
             33           -1.2              0       -20.0871
             34         -1.175              0       -20.0975
             35       -1.15294              0       -20.1107
             36       -1.13333              0       -20.1167
             37       -1.09474              0       -20.1404
             38          -1.06              0       -20.1618
             39       -1.02857              0       -20.1811
             40       -1.00909              0       -20.1999
             41      -0.991304              0       -20.2164
             42      -0.991667              0       -20.2237
             43         -0.992              0       -20.2287
             44             -1              0       -20.2279
             45             -1              0       -20.2365
             46             -1              0       -20.2453
             47             -1              0       -20.2535
             48      -0.993333              0       -20.2656
             49      -0.980645              0       -20.2766
             50       -0.96875              0       -20.2863
             51      -0.951515              0       -20.2943
             52      -0.935294              0       -20.3018
             53      -0.925714              0       -20.3071
             54      -0.927778              0       -20.3127
             55       -0.92973              0        -20.318
             56      -0.931579              0        -20.323
             57      -0.928205              0       -20.3309
             58          -0.94              0       -20.3335
             59      -0.946341              0       -20.3391
             60      -0.942857              0        -20.343
             61      -0.939535              0       -20.3468
             62      -0.936364              0       -20.3524
             63      -0.928889              0       -20.3565
             64      -0.921739              0       -20.3611
             65      -0.910638              0       -20.3654
             66      -0.904167              0       -20.3676
             67      -0.897959              0       -20.3707
             68         -0.892              0       -20.3763
             69      -0.886275              0       -20.3816
             70      -0.880769              0       -20.3868
             71      -0.879245              0       -20.3914
             72       -0.87037              0       -20.3947
             73      -0.865455              0       -20.3989
             74      -0.860714              0        -20.403
             75       -0.85614              0        -20.407
             76      -0.851724              0       -20.4105
             77      -0.847458              0       -20.4138
             78      -0.843333              0       -20.4159
             79      -0.842623              0       -20.4164
             80      -0.841935              0       -20.4169
             81       -0.84127              0       -20.4173
             82        -0.8375              0       -20.4184
             83      -0.830769              0       -20.4211
             84      -0.824242              0       -20.4238
             85       -0.81791              0       -20.4263
             86      -0.811765              0       -20.4288
             87      -0.805797              0        -20.431
             88      -0.802857              0       -20.4321
             89           -0.8              0       -20.4322
             90      -0.794444              0       -20.4344
             91      -0.791781              0       -20.4347
             92      -0.789189              0        -20.435
             93      -0.786667              0       -20.4374
             94      -0.786842              0       -20.4397
             95       -0.78961              0       -20.4419
             96      -0.787179              0       -20.4438
             97      -0.782278              0       -20.4457
             98         -0.775              0       -20.4479
             99      -0.767901              0         -20.45
            100      -0.760976              0       -20.4524
            101      -0.754217              0       -20.4549
            102      -0.747619              0       -20.4574
            103      -0.741176              0       -20.4598
            104      -0.739535              0       -20.4609
            105      -0.735632              0       -20.4621
            106      -0.734091              0       -20.4614
            107      -0.734831              0       -20.4601
            108      -0.733333              0       -20.4593
            109      -0.731868              0       -20.4585
            110      -0.730435              0       -20.4577
            111      -0.729032              0       -20.4569
            112      -0.729787              0       -20.4561
            113      -0.730526              0       -20.4552
            114       -0.73125              0       -20.4559
            115      -0.731959              0       -20.4565
            116      -0.734694              0       -20.4569
            117      -0.739394              0        -20.456
            118         -0.742              0       -20.4579
            119      -0.744554              0       -20.4597
            120      -0.743137              0       -20.4615
            121      -0.741748              0       -20.4632
            122      -0.742308              0        -20.464
            123      -0.742857              0       -20.4648
            124      -0.739623              0       -20.4654
            125      -0.740187              0       -20.4656
            126      -0.740741              0       -20.4658
            127      -0.741284              0       -20.4658
            128      -0.741818              0       -20.4658
            129      -0.744144              0       -20.4642
            130      -0.748214              0       -20.4622
            131      -0.753982              0       -20.4604
            132       -0.75614              0       -20.4593
            133      -0.756522              0       -20.4582
            134      -0.758621              0       -20.4554
            135      -0.758974              0       -20.4542
            136      -0.759322              0       -20.4544
            137      -0.759664              0       -20.4545
            138      -0.763333              0        -20.455
            139      -0.765289              0       -20.4559
            140      -0.765574              0        -20.457
            141      -0.765854              0       -20.4581
            142      -0.764516              0       -20.4594
            143        -0.7616              0       -20.4607
            144      -0.760317              0       -20.4617
            145       -0.75748              0       -20.4627
            146      -0.754687              0       -20.4637
            147      -0.750388              0       -20.4644
            148      -0.746154              0       -20.4652
            149      -0.741985              0       -20.4662
            150      -0.737879              0       -20.4675
            151      -0.735338              0       -20.4672
            152      -0.734328              0       -20.4668
            153      -0.733333              0       -20.4663
            154      -0.732353              0       -20.4662
            155      -0.734307              0       -20.4647
            156       -0.73913              0       -20.4613
            157      -0.743885              0       -20.4583
            158      -0.747143              0       -20.4561
            159      -0.750355              0        -20.454
            160      -0.750704              0       -20.4532
            161      -0.752448              0       -20.4524
            162      -0.754167              0       -20.4517
            163      -0.757241              0       -20.4507
            164      -0.761644              0       -20.4497
            165      -0.760544              0       -20.4507
            166      -0.759459              0       -20.4518
            167      -0.758389              0       -20.4526
            168         -0.756              0       -20.4536
            169      -0.753642              0       -20.4545
            170      -0.751316              0       -20.4554
            171       -0.74902              0       -20.4558
            172      -0.748052              0       -20.4557
            173      -0.747097              0       -20.4557
            174      -0.748718              0       -20.4552
            175      -0.751592              0       -20.4545
            176       -0.75443              0        -20.452
            177      -0.755975              0       -20.4507
            178        -0.7575              0       -20.4495
            179      -0.759006              0       -20.4501
            180      -0.760494              0       -20.4507
            181      -0.760736              0       -20.4513
            182      -0.759756              0       -20.4523
            183          -0.76              0       -20.4532
            184      -0.759036              0       -20.4545
            185      -0.758084              0       -20.4554
            186      -0.754762              0       -20.4569
            187      -0.751479              0       -20.4584
            188      -0.748235              0       -20.4594
            189      -0.746199              0       -20.4593
            190      -0.743023              0       -20.4593
            191       -0.74104              0       -20.4599
            192       -0.73908              0       -20.4608
            193         -0.736              0       -20.4622
            194      -0.732955              0       -20.4635
            195      -0.731073              0       -20.4641
            196      -0.730337              0       -20.4644
            197      -0.730726              0       -20.4642
            198          -0.73              0        -20.464
            199      -0.729282              0       -20.4638
            200      -0.727473              0       -20.4629
            201      -0.725683              0        -20.462
            202      -0.723913              0       -20.4611
            203      -0.722162              0       -20.4602
            204       -0.72043              0       -20.4594
            205      -0.720856              0       -20.4585
            206      -0.720213              0       -20.4588
            207      -0.719577              0       -20.4591
            208          -0.72              0       -20.4585
            209      -0.718325              0       -20.4596
            210      -0.716667              0       -20.4606
            211      -0.715026              0       -20.4616
            212      -0.714433              0       -20.4622
            213      -0.713846              0       -20.4628
            214      -0.713265              0       -20.4633
            215      -0.713706              0       -20.4635
            216      -0.713131              0       -20.4636
            217      -0.712563              0       -20.4638
            218         -0.712              0        -20.464
            219      -0.712438              0       -20.4633
            220      -0.713861              0       -20.4623
            221      -0.715271              0       -20.4613
            222      -0.715686              0       -20.4606
            223      -0.716098              0         -20.46
            224      -0.715534              0       -20.4597
            225      -0.714976              0       -20.4594
            226      -0.713462              0       -20.4595
            227      -0.712919              0       -20.4595
            228      -0.712381              0       -20.4597
            229      -0.711848              0       -20.4598
            230      -0.712264              0       -20.4598
            231      -0.713615              0       -20.4595
            232      -0.714019              0       -20.4582
            233      -0.713488              0       -20.4588
            234      -0.713889              0       -20.4592
            235      -0.713364              0         -20.46
            236      -0.712844              0       -20.4602
            237      -0.713242              0       -20.4605
            238      -0.714545              0       -20.4609
            239      -0.714932              0       -20.4615
            240      -0.715315              0       -20.4619
            241      -0.715695              0       -20.4623
            242      -0.716071              0       -20.4627
            243      -0.715556              0        -20.463
            244      -0.715044              0       -20.4639
            245      -0.715419              0       -20.4645
            246      -0.715789              0       -20.4652
            247      -0.718777              0       -20.4646
            248      -0.722609              0       -20.4639
            249      -0.724675              0       -20.4633
            250      -0.726724              0       -20.4626
            251      -0.728755              0       -20.4622
            252      -0.729915              0       -20.4619
            253      -0.730213              0       -20.4618
            254      -0.730508              0       -20.4616
            255      -0.730802              0       -20.4611
            256      -0.731092              0       -20.4607
            257      -0.731381              0       -20.4602
            258      -0.730833              0       -20.4601
            259      -0.729461              0       -20.4601
            260      -0.728099              0       -20.4599
            261      -0.725926              0       -20.4605
            262       -0.72623              0       -20.4603
            263      -0.725714              0       -20.4604
            264      -0.725203              0       -20.4605
            265      -0.723887              0       -20.4614
            266      -0.723387              0       -20.4608
            267      -0.722088              0       -20.4603
            268        -0.7216              0       -20.4611
            269      -0.721912              0       -20.4612
            270      -0.722222              0        -20.461
            271       -0.72253              0       -20.4609
            272      -0.723622              0       -20.4603
            273      -0.724706              0         -20.46
            274      -0.725781              0         -20.46
            275      -0.726848              0         -20.46
            276      -0.726357              0       -20.4599
            277      -0.725097              0       -20.4606
            278      -0.724615              0       -20.4613
            279      -0.723372              0       -20.4618
            280      -0.722137              0       -20.4622
            281      -0.722433              0       -20.4627
            282      -0.722727              0       -20.4632
            283      -0.725283              0       -20.4632
            284      -0.726316              0       -20.4634
            285       -0.72809              0       -20.4636
            286      -0.730597              0       -20.4638
            287      -0.733829              0        -20.464
            288      -0.737778              0        -20.464
            289      -0.740959              0        -20.464
            290      -0.743382              0       -20.4642
            291      -0.745055              0       -20.4642
            292      -0.748175              0       -20.4627
            293      -0.749818              0       -20.4619
            294      -0.751449              0       -20.4609
            295      -0.753791              0       -20.4592
            296      -0.756115              0       -20.4579
            297      -0.757706              0       -20.4565
            298      -0.757857              0       -20.4559
            299      -0.758719              0       -20.4554
            300      -0.759574              0       -20.4548
            301      -0.760424              0       -20.4551
            302      -0.761268              0       -20.4553
            303      -0.762105              0       -20.4548
            304      -0.763636              0       -20.4542
            305       -0.76446              0       -20.4539
            306      -0.765278              0       -20.4537
            307      -0.766782              0       -20.4535
            308      -0.768966              0       -20.4533
            309      -0.770447              0       -20.4532
            310      -0.771918              0       -20.4532
            311      -0.773379              0       -20.4526
            312       -0.77415              0       -20.4521
            313      -0.774237              0       -20.4519
            314      -0.774324              0       -20.4518
            315      -0.774411              0        -20.452
            316      -0.774497              0       -20.4522
            317      -0.775251              0       -20.4522
            318      -0.774667              0       -20.4527
            319      -0.773422              0        -20.453
            320      -0.772185              0       -20.4532
            321      -0.770957              0        -20.454
            322      -0.769737              0       -20.4549
            323       -0.76918              0       -20.4557
            324      -0.768627              0       -20.4564
            325      -0.767427              0       -20.4571
