seed=1725278593
seed2=300
L=10
nstep=10000
tw=1
Jz=0
eps=5
alpha=0
Sz=0
pbc=0
type=1
beta=10
tau=0.001
Jxy=1
wc=10
ss=1
              1              0              0       -19.4537
              2           -0.2              0       -20.3149
              3           -0.4              0       -21.3232
              4          -0.55              0       -21.7322
              5          -0.64              0       -22.0953
              6      -0.633333              0       -22.3058
              7           -0.6              0       -22.5625
              8         -0.575              0        -22.755
              9      -0.533333              0       -22.9138
             10           -0.5              0       -23.0386
             11      -0.472727              0       -23.1406
             12          -0.45              0       -23.2257
             13      -0.446154              0       -23.2953
             14      -0.442857              0       -23.3549
             15      -0.426667              0       -23.4293
             16        -0.4125              0       -23.4945
             17      -0.411765              0         -23.55
             18      -0.411111              0       -23.5993
             19      -0.410526              0       -23.6434
             20          -0.42              0        -23.682
             21      -0.419048              0        -23.718
             22      -0.427273              0       -23.7447
             23      -0.426087              0       -23.7706
             24      -0.433333              0       -23.7929
             25          -0.44              0       -23.8098
             26      -0.453846              0       -23.8245
             27      -0.459259              0        -23.839
             28      -0.471429              0        -23.847
             29      -0.489655              0       -23.8541
             30      -0.506667              0       -23.8669
             31      -0.509677              0       -23.8849
             32        -0.5125              0       -23.8996
             33      -0.509091              0       -23.9159
             34      -0.505882              0       -23.9309
             35      -0.502857              0       -23.9418
             36           -0.5              0        -23.953
             37      -0.502703              0       -23.9613
             38           -0.5              0       -23.9694
             39      -0.492308              0       -23.9808
             40         -0.485              0       -23.9917
             41      -0.482927              0       -24.0006
             42      -0.480952              0         -24.01
             43       -0.47907              0       -24.0189
             44      -0.477273              0       -24.0275
             45      -0.475556              0       -24.0357
             46      -0.469565              0       -24.0437
             47       -0.46383              0       -24.0513
             48      -0.454167              0       -24.0608
             49      -0.454167              0       -24.0608
             50      -0.454167              0       -24.0608
             51      -0.454167              0       -24.0608
             52      -0.454167              0       -24.0608
             53      -0.454167              0       -24.0608
             54      -0.454167              0       -24.0608
             55      -0.454167              0       -24.0608
             56      -0.454167              0       -24.0608
             57      -0.454167              0       -24.0608
             58      -0.454167              0       -24.0608
             59      -0.454167              0       -24.0608
             60      -0.454167              0       -24.0608
             61      -0.454167              0       -24.0608
             62      -0.454167              0       -24.0608
             63      -0.454167              0       -24.0608
             64      -0.454167              0       -24.0608
             65      -0.454167              0       -24.0608
             66      -0.454167              0       -24.0608
             67      -0.454167              0       -24.0608
             68      -0.454167              0       -24.0608
             69      -0.454167              0       -24.0608
             70      -0.454167              0       -24.0608
             71      -0.454167              0       -24.0608
             72      -0.454167              0       -24.0608
             73      -0.454167              0       -24.0608
             74      -0.454167              0       -24.0608
             75      -0.454167              0       -24.0608
             76      -0.454167              0       -24.0608
             77      -0.454167              0       -24.0608
             78      -0.454167              0       -24.0608
             79      -0.454167              0       -24.0608
             80      -0.454167              0       -24.0608
             81      -0.454167              0       -24.0608
             82      -0.454167              0       -24.0608
             83      -0.454167              0       -24.0608
             84      -0.454167              0       -24.0608
             85      -0.454167              0       -24.0608
             86      -0.454167              0       -24.0608
             87      -0.454167              0       -24.0608
             88      -0.454167              0       -24.0608
             89      -0.454167              0       -24.0608
             90      -0.454167              0       -24.0608
             91      -0.454167              0       -24.0608
             92      -0.454167              0       -24.0608
             93      -0.454167              0       -24.0608
             94      -0.454167              0       -24.0608
             95      -0.454167              0       -24.0608
             96      -0.454167              0       -24.0608
             97      -0.454167              0       -24.0608
             98      -0.454167              0       -24.0608
             99      -0.454167              0       -24.0608
            100      -0.454167              0       -24.0608
            101      -0.454167              0       -24.0608
            102      -0.454167              0       -24.0608
            103      -0.454167              0       -24.0608
            104      -0.454167              0       -24.0608
            105      -0.454167              0       -24.0608
            106      -0.454167              0       -24.0608
            107      -0.454167              0       -24.0608
            108      -0.454167              0       -24.0608
            109      -0.454167              0       -24.0608
            110      -0.454167              0       -24.0608
            111      -0.454167              0       -24.0608
            112      -0.454167              0       -24.0608
            113      -0.454167              0       -24.0608
            114      -0.454167              0       -24.0608
            115      -0.454167              0       -24.0608
            116      -0.454167              0       -24.0608
            117      -0.454167              0       -24.0608
            118      -0.454167              0       -24.0608
            119      -0.454167              0       -24.0608
            120      -0.454167              0       -24.0608
            121      -0.454167              0       -24.0608
            122      -0.454167              0       -24.0608
            123      -0.454167              0       -24.0608
            124      -0.454167              0       -24.0608
            125      -0.454167              0       -24.0608
            126      -0.454167              0       -24.0608
            127      -0.454167              0       -24.0608
            128      -0.454167              0       -24.0608
            129      -0.454167              0       -24.0608
            130      -0.454167              0       -24.0608
            131      -0.454167              0       -24.0608
            132      -0.454167              0       -24.0608
            133      -0.454167              0       -24.0608
            134      -0.454167              0       -24.0608
            135      -0.454167              0       -24.0608
            136      -0.454167              0       -24.0608
            137      -0.454167              0       -24.0608
            138      -0.454167              0       -24.0608
            139      -0.454167              0       -24.0608
            140      -0.454167              0       -24.0608
            141      -0.454167              0       -24.0608
            142      -0.454167              0       -24.0608
            143      -0.454167              0       -24.0608
            144      -0.454167              0       -24.0608
            145      -0.454167              0       -24.0608
            146      -0.454167              0       -24.0608
            147      -0.454167              0       -24.0608
            148      -0.454167              0       -24.0608
            149      -0.454167              0       -24.0608
            150      -0.454167              0       -24.0608
            151      -0.454167              0       -24.0608
            152      -0.454167              0       -24.0608
            153      -0.454167              0       -24.0608
            154      -0.454167              0       -24.0608
            155      -0.454167              0       -24.0608
            156      -0.454167              0       -24.0608
            157      -0.454167              0       -24.0608
            158      -0.454167              0       -24.0608
            159      -0.454167              0       -24.0608
            160      -0.454167              0       -24.0608
            161      -0.454167              0       -24.0608
            162      -0.454167              0       -24.0608
            163      -0.454167              0       -24.0608
            164      -0.454167              0       -24.0608
            165      -0.454167              0       -24.0608
            166      -0.454167              0       -24.0608
            167      -0.454167              0       -24.0608
            168      -0.454167              0       -24.0608
            169      -0.454167              0       -24.0608
            170      -0.454167              0       -24.0608
            171      -0.454167              0       -24.0608
            172      -0.454167              0       -24.0608
            173      -0.454167              0       -24.0608
            174      -0.454167              0       -24.0608
            175      -0.454167              0       -24.0608
            176      -0.454167              0       -24.0608
            177      -0.454167              0       -24.0608
            178      -0.454167              0       -24.0608
            179      -0.454167              0       -24.0608
            180      -0.454167              0       -24.0608
            181      -0.454167              0       -24.0608
            182      -0.454167              0       -24.0608
            183      -0.454167              0       -24.0608
            184      -0.454167              0       -24.0608
            185      -0.454167              0       -24.0608
            186      -0.454167              0       -24.0608
            187      -0.454167              0       -24.0608
            188      -0.454167              0       -24.0608
            189      -0.454167              0       -24.0608
            190      -0.454167              0       -24.0608
            191      -0.454167              0       -24.0608
            192      -0.454167              0       -24.0608
            193      -0.454167              0       -24.0608
            194      -0.454167              0       -24.0608
            195      -0.454167              0       -24.0608
            196      -0.454167              0       -24.0608
            197      -0.454167              0       -24.0608
            198      -0.454167              0       -24.0608
            199      -0.454167              0       -24.0608
            200      -0.454167              0       -24.0608
            201      -0.454167              0       -24.0608
            202      -0.454167              0       -24.0608
            203      -0.454167              0       -24.0608
            204      -0.454167              0       -24.0608
            205      -0.454167              0       -24.0608
            206      -0.454167              0       -24.0608
            207      -0.454167              0       -24.0608
            208      -0.454167              0       -24.0608
            209      -0.454167              0       -24.0608
            210      -0.454167              0       -24.0608
            211      -0.454167              0       -24.0608
            212      -0.454167              0       -24.0608
            213      -0.454167              0       -24.0608
            214      -0.454167              0       -24.0608
            215      -0.454167              0       -24.0608
            216      -0.454167              0       -24.0608
            217      -0.454167              0       -24.0608
            218      -0.454167              0       -24.0608
            219      -0.454167              0       -24.0608
            220      -0.454167              0       -24.0608
            221      -0.454167              0       -24.0608
            222      -0.454167              0       -24.0608
            223      -0.454167              0       -24.0608
            224      -0.454167              0       -24.0608
            225      -0.454167              0       -24.0608
            226      -0.454167              0       -24.0608
            227      -0.454167              0       -24.0608
            228      -0.454167              0       -24.0608
            229      -0.454167              0       -24.0608
            230      -0.454167              0       -24.0608
            231      -0.454167              0       -24.0608
            232      -0.454167              0       -24.0608
            233      -0.454167              0       -24.0608
            234      -0.454167              0       -24.0608
            235      -0.454167              0       -24.0608
            236      -0.454167              0       -24.0608
            237      -0.454167              0       -24.0608
            238      -0.454167              0       -24.0608
            239      -0.454167              0       -24.0608
            240      -0.454167              0       -24.0608
            241      -0.454167              0       -24.0608
            242      -0.454167              0       -24.0608
            243      -0.454167              0       -24.0608
            244      -0.454167              0       -24.0608
            245      -0.454167              0       -24.0608
            246      -0.454167              0       -24.0608
            247      -0.454167              0       -24.0608
            248      -0.454167              0       -24.0608
            249      -0.454167              0       -24.0608
            250      -0.454167              0       -24.0608
            251      -0.454167              0       -24.0608
            252      -0.454167              0       -24.0608
            253      -0.454167              0       -24.0608
            254      -0.454167              0       -24.0608
            255      -0.454167              0       -24.0608
            256      -0.454167              0       -24.0608
            257      -0.454167              0       -24.0608
            258      -0.454167              0       -24.0608
            259      -0.454167              0       -24.0608
            260      -0.454167              0       -24.0608
            261      -0.454167              0       -24.0608
            262      -0.454167              0       -24.0608
            263      -0.454167              0       -24.0608
            264      -0.454167              0       -24.0608
            265      -0.454167              0       -24.0608
            266      -0.454167              0       -24.0608
            267      -0.454167              0       -24.0608
            268      -0.454167              0       -24.0608
            269      -0.454167              0       -24.0608
            270      -0.454167              0       -24.0608
            271      -0.454167              0       -24.0608
            272      -0.454167              0       -24.0608
            273      -0.454167              0       -24.0608
            274      -0.454167              0       -24.0608
            275      -0.454167              0       -24.0608
            276      -0.454167              0       -24.0608
            277      -0.454167              0       -24.0608
            278      -0.454167              0       -24.0608
            279      -0.454167              0       -24.0608
            280      -0.454167              0       -24.0608
            281      -0.454167              0       -24.0608
            282      -0.454167              0       -24.0608
            283      -0.454167              0       -24.0608
            284      -0.454167              0       -24.0608
            285      -0.454167              0       -24.0608
            286      -0.454167              0       -24.0608
            287      -0.454167              0       -24.0608
            288      -0.454167              0       -24.0608
            289      -0.454167              0       -24.0608
            290      -0.454167              0       -24.0608
            291      -0.454167              0       -24.0608
            292      -0.454167              0       -24.0608
            293      -0.454167              0       -24.0608
            294      -0.454167              0       -24.0608
            295      -0.454167              0       -24.0608
            296      -0.454167              0       -24.0608
            297      -0.454167              0       -24.0608
            298      -0.454167              0       -24.0608
            299      -0.454167              0       -24.0608
            300      -0.454167              0       -24.0608
            301      -0.454167              0       -24.0608
            302      -0.454167              0       -24.0608
            303      -0.454167              0       -24.0608
            304      -0.454167              0       -24.0608
            305      -0.454167              0       -24.0608
            306      -0.454167              0       -24.0608
            307      -0.454167              0       -24.0608
            308      -0.454167              0       -24.0608
            309      -0.454167              0       -24.0608
            310      -0.454167              0       -24.0608
            311      -0.454167              0       -24.0608
            312      -0.454167              0       -24.0608
            313      -0.454167              0       -24.0608
            314      -0.454167              0       -24.0608
            315      -0.454167              0       -24.0608
            316      -0.454167              0       -24.0608
            317      -0.454167              0       -24.0608
            318      -0.454167              0       -24.0608
            319      -0.454167              0       -24.0608
            320      -0.454167              0       -24.0608
            321      -0.454167              0       -24.0608
            322      -0.454167              0       -24.0608
            323      -0.454167              0       -24.0608
            324      -0.454167              0       -24.0608
            325      -0.454167              0       -24.0608
