seed=1725239196
seed2=176
L=10
nstep=10000
tw=1
Jz=0
eps=5
alpha=0
Sz=0
pbc=0
type=1
beta=10
tau=0.001
Jxy=1
wc=10
ss=1
              1           -0.8              0       -10.3509
              2           -0.9              0       -11.1945
              3             -1              0       -11.5332
              4          -1.05              0       -11.7737
              5          -1.12              0       -12.4492
              6       -1.23333              0       -13.0547
              7       -1.31429              0        -13.593
              8         -1.375              0       -13.9968
              9       -1.42222              0       -14.3885
             10          -1.44              0       -14.7081
             11       -1.45455              0       -14.9785
             12       -1.46667              0       -15.1975
             13       -1.49231              0       -15.4208
             14       -1.51429              0       -15.7507
             15       -1.50667              0       -16.0682
             16        -1.4875              0       -16.3857
             17       -1.47059              0       -16.6508
             18       -1.45556              0       -16.9386
             19       -1.45556              0       -16.9386
             20       -1.45556              0       -16.9386
             21       -1.45556              0       -16.9386
             22       -1.45556              0       -16.9386
             23       -1.45556              0       -16.9386
             24       -1.45556              0       -16.9386
             25       -1.45556              0       -16.9386
             26       -1.45556              0       -16.9386
             27       -1.45556              0       -16.9386
             28       -1.45556              0       -16.9386
             29       -1.45556              0       -16.9386
             30       -1.45556              0       -16.9386
             31       -1.45556              0       -16.9386
             32       -1.45556              0       -16.9386
             33       -1.45556              0       -16.9386
             34       -1.45556              0       -16.9386
             35       -1.45556              0       -16.9386
             36       -1.45556              0       -16.9386
             37       -1.45556              0       -16.9386
             38       -1.45556              0       -16.9386
             39       -1.45556              0       -16.9386
             40       -1.45556              0       -16.9386
             41       -1.45556              0       -16.9386
             42       -1.45556              0       -16.9386
             43       -1.45556              0       -16.9386
             44       -1.45556              0       -16.9386
             45       -1.45556              0       -16.9386
             46       -1.45556              0       -16.9386
             47       -1.45556              0       -16.9386
             48       -1.45556              0       -16.9386
             49       -1.45556              0       -16.9386
             50       -1.45556              0       -16.9386
             51       -1.45556              0       -16.9386
             52       -1.45556              0       -16.9386
             53       -1.45556              0       -16.9386
             54       -1.45556              0       -16.9386
             55       -1.45556              0       -16.9386
             56       -1.45556              0       -16.9386
             57       -1.45556              0       -16.9386
             58       -1.45556              0       -16.9386
             59       -1.45556              0       -16.9386
             60       -1.45556              0       -16.9386
             61       -1.45556              0       -16.9386
             62       -1.45556              0       -16.9386
             63       -1.45556              0       -16.9386
             64       -1.45556              0       -16.9386
             65       -1.45556              0       -16.9386
             66       -1.45556              0       -16.9386
             67       -1.45556              0       -16.9386
             68       -1.45556              0       -16.9386
             69       -1.45556              0       -16.9386
             70       -1.45556              0       -16.9386
             71       -1.45556              0       -16.9386
             72       -1.45556              0       -16.9386
             73       -1.45556              0       -16.9386
             74       -1.45556              0       -16.9386
             75       -1.45556              0       -16.9386
             76       -1.45556              0       -16.9386
             77       -1.45556              0       -16.9386
             78       -1.45556              0       -16.9386
             79       -1.45556              0       -16.9386
             80       -1.45556              0       -16.9386
             81       -1.45556              0       -16.9386
             82       -1.45556              0       -16.9386
             83       -1.45556              0       -16.9386
             84       -1.45556              0       -16.9386
             85       -1.45556              0       -16.9386
             86       -1.45556              0       -16.9386
             87       -1.45556              0       -16.9386
             88       -1.45556              0       -16.9386
             89       -1.45556              0       -16.9386
             90       -1.45556              0       -16.9386
             91       -1.45556              0       -16.9386
             92           -1.4              0       -17.5001
             93          -1.35              0       -18.0053
             94       -1.30476              0       -18.4625
             95       -1.25455              0       -19.0431
             96        -1.2087              0       -19.5732
             97         -1.175              0       -20.0526
             98         -1.144              0       -20.4936
             99       -1.10769              0       -20.9061
            100       -1.06667              0       -21.2939
            101       -1.02857              0        -21.654
            102      -0.993103              0       -21.9893
            103          -0.96              0       -22.3022
            104      -0.929032              0        -22.595
            105           -0.9              0       -22.8694
            106      -0.878788              0       -23.1209
            107      -0.852941              0       -23.3637
            108      -0.828571              0       -23.5926
            109      -0.805556              0       -23.8089
            110      -0.783784              0       -24.0134
            111      -0.763158              0       -24.2072
            112       -0.74359              0       -24.3911
            113          -0.73              0       -24.5616
            114      -0.717073              0       -24.7277
            115      -0.704762              0       -24.8842
            116      -0.693023              0       -25.0334
            117      -0.681818              0       -25.1759
            118      -0.671111              0        -25.312
            119       -0.66087              0       -25.4422
            120      -0.651064              0       -25.5668
            121      -0.641667              0       -25.6863
            122      -0.632653              0       -25.8008
            123         -0.624              0       -25.9108
            124      -0.615686              0       -26.0165
            125      -0.607692              0       -26.1181
            126      -0.603774              0       -26.2147
            127           -0.6              0       -26.3077
            128      -0.596364              0       -26.3973
            129      -0.592857              0       -26.4837
            130      -0.585965              0       -26.5682
            131       -0.57931              0       -26.6498
            132      -0.576271              0       -26.7283
            133      -0.573333              0       -26.8042
            134      -0.570492              0       -26.8776
            135      -0.567742              0       -26.9476
            136      -0.565079              0       -27.0152
            137        -0.5625              0       -27.0807
            138          -0.56              0       -27.1442
            139      -0.554545              0       -27.2069
            140      -0.552239              0        -27.265
            141      -0.547059              0       -27.3241
            142      -0.542029              0       -27.3815
            143          -0.54              0       -27.4366
            144      -0.538028              0       -27.4901
            145      -0.536111              0       -27.5422
            146      -0.534247              0       -27.5929
            147       -0.52973              0       -27.6434
            148      -0.525333              0       -27.6926
            149      -0.521053              0       -27.7405
            150      -0.516883              0       -27.7872
            151      -0.512821              0       -27.8326
            152      -0.508861              0       -27.8769
            153        -0.5075              0       -27.9191
            154      -0.503704              0       -27.9613
            155      -0.497561              0       -28.0029
            156      -0.491566              0       -28.0436
            157      -0.485714              0       -28.0833
            158          -0.48              0        -28.122
            159      -0.474419              0       -28.1599
            160      -0.468966              0       -28.1969
            161      -0.463636              0        -28.233
            162      -0.458427              0       -28.2683
            163      -0.453333              0       -28.3029
            164      -0.448352              0       -28.3366
            165      -0.443478              0       -28.3697
            166       -0.43871              0        -28.402
            167      -0.434043              0       -28.4337
            168      -0.429474              0       -28.4647
            169         -0.425              0        -28.495
            170      -0.420619              0       -28.5247
            171      -0.416327              0       -28.5538
            172      -0.414141              0       -28.5785
            173         -0.414              0       -28.6026
            174      -0.413861              0       -28.6263
            175      -0.415686              0       -28.6491
            176      -0.415534              0       -28.6752
            177      -0.415385              0       -28.7008
            178      -0.417143              0       -28.7257
            179      -0.416981              0       -28.7503
            180      -0.420561              0       -28.7741
            181      -0.422222              0       -28.7977
            182      -0.422018              0        -28.821
            183      -0.421818              0       -28.8433
            184      -0.421622              0       -28.8651
            185      -0.419643              0       -28.8875
            186      -0.419469              0       -28.9081
            187      -0.419298              0       -28.9284
            188       -0.41913              0       -28.9484
            189      -0.418966              0        -28.968
            190      -0.420513              0       -28.9871
            191      -0.425424              0       -29.0009
            192      -0.430252              0       -29.0146
            193      -0.433333              0       -29.0292
            194      -0.438017              0       -29.0421
            195      -0.442623              0       -29.0544
            196      -0.447154              0       -29.0666
            197          -0.45              0       -29.0831
            198        -0.4528              0       -29.0993
            199      -0.455556              0       -29.1153
            200      -0.455118              0       -29.1315
            201      -0.454687              0       -29.1475
            202      -0.452713              0       -29.1647
            203      -0.450769              0       -29.1817
            204      -0.448855              0       -29.1984
            205      -0.445455              0       -29.2149
            206      -0.442105              0       -29.2311
            207      -0.438806              0       -29.2471
            208      -0.435556              0       -29.2629
            209      -0.432353              0       -29.2785
            210      -0.430657              0       -29.2924
            211      -0.428986              0        -29.306
            212      -0.427338              0       -29.3195
            213      -0.424286              0       -29.3342
            214      -0.421277              0       -29.3487
            215      -0.419718              0       -29.3628
            216      -0.418182              0       -29.3767
            217      -0.418056              0       -29.3899
            218      -0.417931              0        -29.403
            219      -0.417808              0       -29.4159
            220      -0.417687              0       -29.4287
            221      -0.416216              0       -29.4416
            222      -0.416107              0       -29.4526
            223         -0.416              0       -29.4635
            224      -0.415894              0       -29.4742
            225      -0.415789              0       -29.4848
            226      -0.415686              0       -29.4952
            227      -0.415584              0       -29.5055
            228      -0.415484              0       -29.5156
            229      -0.415385              0       -29.5266
            230      -0.412739              0       -29.5383
            231      -0.410127              0         -29.55
            232      -0.407547              0       -29.5615
            233         -0.405              0       -29.5728
            234      -0.402484              0        -29.584
            235           -0.4              0       -29.5951
            236      -0.397546              0        -29.606
            237      -0.395122              0       -29.6168
            238      -0.392727              0       -29.6275
            239      -0.391566              0       -29.6368
            240      -0.390419              0        -29.646
            241      -0.389286              0       -29.6552
            242      -0.388166              0       -29.6643
            243      -0.387059              0       -29.6733
            244      -0.384795              0       -29.6833
            245      -0.383721              0       -29.6928
            246      -0.383815              0        -29.702
            247      -0.383908              0       -29.7111
            248         -0.384              0       -29.7201
            249      -0.385227              0       -29.7284
            250      -0.386441              0       -29.7367
            251       -0.38764              0       -29.7449
            252      -0.388827              0       -29.7529
            253          -0.39              0       -29.7612
            254      -0.392265              0       -29.7691
            255      -0.394505              0       -29.7768
            256      -0.396721              0       -29.7844
            257      -0.398913              0        -29.792
            258      -0.401081              0       -29.7995
            259      -0.403226              0       -29.8074
            260      -0.405348              0       -29.8152
            261      -0.408511              0       -29.8223
            262       -0.41164              0       -29.8294
            263      -0.414737              0       -29.8365
            264      -0.415707              0       -29.8442
            265      -0.415625              0       -29.8516
            266      -0.415544              0       -29.8592
            267      -0.416495              0       -29.8667
            268       -0.41641              0       -29.8742
            269      -0.416327              0       -29.8809
            270      -0.417259              0       -29.8871
            271      -0.418182              0       -29.8934
            272      -0.419095              0       -29.8992
            273         -0.419              0       -29.9051
            274      -0.418905              0       -29.9109
            275      -0.418812              0       -29.9167
            276      -0.417734              0       -29.9227
            277      -0.415686              0       -29.9299
            278      -0.413659              0       -29.9369
            279      -0.412621              0       -29.9429
            280       -0.41256              0       -29.9474
            281        -0.4125              0       -29.9519
            282       -0.41244              0       -29.9563
            283      -0.413333              0       -29.9605
            284      -0.414218              0       -29.9646
            285      -0.415094              0       -29.9688
            286      -0.414085              0       -29.9744
            287      -0.413084              0       -29.9799
            288      -0.412093              0       -29.9854
            289      -0.411111              0       -29.9908
            290       -0.41106              0        -29.996
            291      -0.410092              0        -30.002
            292      -0.409132              0        -30.008
            293      -0.408182              0       -30.0139
            294       -0.40724              0       -30.0198
            295      -0.406306              0       -30.0256
            296      -0.405381              0       -30.0314
            297      -0.403571              0       -30.0374
            298      -0.402667              0       -30.0432
            299      -0.402655              0        -30.049
            300      -0.402643              0       -30.0547
            301      -0.402632              0       -30.0603
            302      -0.401747              0       -30.0659
            303       -0.40087              0       -30.0715
            304      -0.400866              0       -30.0768
            305      -0.400862              0        -30.082
            306           -0.4              0       -30.0873
            307      -0.399145              0       -30.0926
            308      -0.398298              0       -30.0976
            309      -0.397458              0       -30.1026
            310      -0.397468              0       -30.1068
            311      -0.397479              0       -30.1109
            312       -0.39749              0        -30.115
            313        -0.3975              0       -30.1193
            314       -0.39668              0       -30.1243
            315      -0.397521              0       -30.1287
            316      -0.398354              0       -30.1331
            317       -0.39918              0       -30.1374
            318           -0.4              0       -30.1417
            319      -0.399187              0       -30.1462
            320      -0.398381              0       -30.1507
            321      -0.397581              0       -30.1552
            322      -0.396787              0       -30.1593
            323         -0.396              0       -30.1633
            324      -0.395219              0       -30.1673
            325      -0.395238              0       -30.1709
