seed=1725278593
seed2=400
L=10
nstep=10000
tw=1
Jz=0
eps=5
alpha=0
Sz=0
pbc=0
type=1
beta=10
tau=0.001
Jxy=1
wc=10
ss=1
              1           -0.6              0       -12.1223
              2           -0.9              0       -13.3116
              3             -1              0       -13.9038
              4           -1.1              0       -14.2016
              5           -1.2              0       -14.4266
              6       -1.23333              0       -14.9291
              7       -1.25714              0       -15.3582
              8          -1.25              0       -15.7328
              9       -1.28889              0       -16.1987
             10          -1.32              0       -16.5869
             11       -1.34545              0       -16.9045
             12          -1.35              0       -17.1778
             13       -1.33846              0       -17.4073
             14       -1.31429              0       -17.6061
             15       -1.29333              0       -17.7833
             16          -1.25              0        -17.955
             17       -1.21176              0       -18.1065
             18       -1.17778              0       -18.2403
             19       -1.14737              0       -18.3599
             20          -1.12              0       -18.4678
             21       -1.09524              0       -18.5654
             22       -1.07273              0       -18.6532
             23       -1.04348              0       -18.8326
             24         -1.025              0       -18.9942
             25         -1.016              0       -19.1376
             26       -1.01538              0       -19.2682
             27             -1              0       -19.3966
             28      -0.985714              0       -19.5158
             29      -0.965517              0       -19.6283
             30      -0.953333              0       -19.7283
             31      -0.935484              0       -19.8215
             32       -0.91875              0       -19.9089
             33       -0.90303              0       -19.9921
             34      -0.888235              0       -20.0703
             35      -0.862857              0       -20.1994
             36      -0.838889              0       -20.3212
             37      -0.816216              0       -20.4365
             38      -0.794737              0       -20.5457
             39      -0.774359              0       -20.6494
             40         -0.755              0       -20.7478
             41      -0.741463              0       -20.8394
             42      -0.728571              0       -20.9267
             43      -0.716279              0       -21.0099
             44      -0.704545              0       -21.0894
             45      -0.702222              0       -21.1614
             46           -0.7              0       -21.2304
             47      -0.693617              0       -21.2993
             48      -0.683333              0       -21.3661
             49      -0.677551              0         -21.43
             50         -0.672              0       -21.4914
             51      -0.662745              0       -21.5505
             52      -0.661538              0       -21.6055
             53      -0.656604              0       -21.6588
             54      -0.651852              0       -21.7113
             55      -0.647273              0       -21.7618
             56      -0.642857              0       -21.8106
             57      -0.638596              0       -21.8576
             58      -0.634483              0        -21.903
             59      -0.627119              0       -21.9481
             60          -0.62              0       -21.9918
             61      -0.613115              0        -22.034
             62      -0.609677              0       -22.0711
             63      -0.606349              0       -22.1071
             64      -0.603125              0        -22.142
             65      -0.596923              0       -22.1792
             66      -0.590909              0       -22.2154
             67       -0.58209              0       -22.2508
             68      -0.573529              0       -22.2851
             69      -0.568116              0       -22.3184
             70      -0.562857              0       -22.3507
             71      -0.560563              0       -22.3785
             72      -0.555556              0       -22.4057
             73      -0.547945              0       -22.4355
             74      -0.540541              0       -22.4646
             75      -0.533333              0       -22.4929
             76      -0.528947              0       -22.5161
             77      -0.527273              0       -22.5383
             78      -0.523077              0       -22.5641
             79      -0.518987              0       -22.5893
             80        -0.5125              0       -22.6142
             81      -0.506173              0       -22.6386
             82      -0.502439              0       -22.6616
             83      -0.498795              0        -22.684
             84      -0.495238              0       -22.7059
             85      -0.491765              0       -22.7273
             86      -0.486047              0       -22.7489
             87       -0.48046              0         -22.77
             88         -0.475              0       -22.7906
             89      -0.469663              0       -22.8108
             90      -0.466667              0       -22.8278
             91      -0.461538              0       -22.8471
             92      -0.456522              0        -22.866
             93      -0.451613              0       -22.8845
             94      -0.446809              0       -22.9026
             95      -0.442105              0       -22.9203
             96        -0.4375              0       -22.9377
             97       -0.43299              0       -22.9547
             98      -0.428571              0       -22.9714
             99      -0.424242              0       -22.9877
            100          -0.42              0       -23.0037
            101      -0.415842              0       -23.0193
            102      -0.413725              0       -23.0344
            103       -0.41165              0       -23.0491
            104      -0.409615              0       -23.0638
            105      -0.407619              0       -23.0782
            106       -0.40566              0       -23.0923
            107      -0.401869              0       -23.1062
            108      -0.401852              0       -23.1184
            109      -0.401835              0       -23.1303
            110      -0.401835              0       -23.1303
            111      -0.401835              0       -23.1303
            112      -0.401835              0       -23.1303
            113      -0.401835              0       -23.1303
            114      -0.401835              0       -23.1303
            115      -0.401835              0       -23.1303
            116      -0.401835              0       -23.1303
            117      -0.401835              0       -23.1303
            118      -0.401835              0       -23.1303
            119      -0.401835              0       -23.1303
            120      -0.401835              0       -23.1303
            121      -0.401835              0       -23.1303
            122      -0.401835              0       -23.1303
            123      -0.401835              0       -23.1303
            124      -0.401835              0       -23.1303
            125      -0.401835              0       -23.1303
            126      -0.401835              0       -23.1303
            127      -0.401835              0       -23.1303
            128      -0.401835              0       -23.1303
            129      -0.401835              0       -23.1303
            130      -0.401835              0       -23.1303
            131      -0.401835              0       -23.1303
            132      -0.401835              0       -23.1303
            133      -0.401835              0       -23.1303
            134      -0.401835              0       -23.1303
            135      -0.401835              0       -23.1303
            136      -0.401835              0       -23.1303
            137      -0.401835              0       -23.1303
            138      -0.401835              0       -23.1303
            139      -0.401835              0       -23.1303
            140      -0.401835              0       -23.1303
            141      -0.401835              0       -23.1303
            142      -0.401835              0       -23.1303
            143      -0.401835              0       -23.1303
            144      -0.401835              0       -23.1303
            145      -0.401835              0       -23.1303
            146      -0.401835              0       -23.1303
            147      -0.401835              0       -23.1303
            148      -0.401835              0       -23.1303
            149      -0.401835              0       -23.1303
            150      -0.401835              0       -23.1303
            151      -0.401835              0       -23.1303
            152      -0.401835              0       -23.1303
            153      -0.401835              0       -23.1303
            154      -0.401835              0       -23.1303
            155      -0.401835              0       -23.1303
            156      -0.401835              0       -23.1303
            157      -0.401835              0       -23.1303
            158      -0.401835              0       -23.1303
            159      -0.401835              0       -23.1303
            160      -0.401835              0       -23.1303
            161      -0.401835              0       -23.1303
            162      -0.401835              0       -23.1303
            163      -0.401835              0       -23.1303
            164      -0.401835              0       -23.1303
            165      -0.401835              0       -23.1303
            166      -0.401835              0       -23.1303
            167      -0.401835              0       -23.1303
            168      -0.401835              0       -23.1303
            169      -0.401835              0       -23.1303
            170      -0.401835              0       -23.1303
            171      -0.401835              0       -23.1303
            172      -0.401835              0       -23.1303
            173      -0.401835              0       -23.1303
            174      -0.401835              0       -23.1303
            175      -0.401835              0       -23.1303
            176      -0.401835              0       -23.1303
            177      -0.401835              0       -23.1303
            178      -0.401835              0       -23.1303
            179      -0.401835              0       -23.1303
            180      -0.401835              0       -23.1303
            181      -0.401835              0       -23.1303
            182      -0.401835              0       -23.1303
            183      -0.401835              0       -23.1303
            184      -0.401835              0       -23.1303
            185      -0.401835              0       -23.1303
            186      -0.401835              0       -23.1303
            187      -0.401835              0       -23.1303
            188      -0.401835              0       -23.1303
            189      -0.401835              0       -23.1303
            190      -0.401835              0       -23.1303
            191      -0.401835              0       -23.1303
            192      -0.401835              0       -23.1303
            193      -0.401835              0       -23.1303
            194      -0.401835              0       -23.1303
            195      -0.401835              0       -23.1303
            196      -0.401835              0       -23.1303
            197      -0.401835              0       -23.1303
            198      -0.401835              0       -23.1303
            199      -0.401835              0       -23.1303
            200      -0.401835              0       -23.1303
            201      -0.401835              0       -23.1303
            202      -0.401835              0       -23.1303
            203      -0.401835              0       -23.1303
            204      -0.401835              0       -23.1303
            205      -0.401835              0       -23.1303
            206      -0.401835              0       -23.1303
            207      -0.401835              0       -23.1303
            208      -0.401835              0       -23.1303
            209      -0.401835              0       -23.1303
            210      -0.401835              0       -23.1303
            211      -0.401835              0       -23.1303
            212      -0.401835              0       -23.1303
            213      -0.401835              0       -23.1303
            214      -0.401835              0       -23.1303
            215      -0.401835              0       -23.1303
            216      -0.401835              0       -23.1303
            217      -0.401835              0       -23.1303
            218      -0.401835              0       -23.1303
            219      -0.401835              0       -23.1303
            220      -0.401835              0       -23.1303
            221      -0.401835              0       -23.1303
            222      -0.401835              0       -23.1303
            223      -0.401835              0       -23.1303
            224      -0.401835              0       -23.1303
            225      -0.401835              0       -23.1303
            226      -0.401835              0       -23.1303
            227      -0.401835              0       -23.1303
            228      -0.401835              0       -23.1303
            229      -0.401835              0       -23.1303
            230      -0.401835              0       -23.1303
            231      -0.401835              0       -23.1303
            232      -0.401835              0       -23.1303
            233      -0.401835              0       -23.1303
            234      -0.401835              0       -23.1303
            235      -0.401835              0       -23.1303
            236      -0.401835              0       -23.1303
            237      -0.401835              0       -23.1303
            238      -0.401835              0       -23.1303
            239      -0.401835              0       -23.1303
            240      -0.401835              0       -23.1303
            241      -0.401835              0       -23.1303
            242      -0.401835              0       -23.1303
            243      -0.401835              0       -23.1303
            244      -0.401835              0       -23.1303
            245      -0.401835              0       -23.1303
            246      -0.401835              0       -23.1303
            247      -0.401835              0       -23.1303
            248      -0.401835              0       -23.1303
            249      -0.401835              0       -23.1303
            250      -0.401835              0       -23.1303
            251      -0.401835              0       -23.1303
            252      -0.401835              0       -23.1303
            253      -0.401835              0       -23.1303
            254      -0.401835              0       -23.1303
            255      -0.401835              0       -23.1303
            256      -0.401835              0       -23.1303
            257      -0.401835              0       -23.1303
            258      -0.401835              0       -23.1303
            259      -0.401835              0       -23.1303
            260      -0.401835              0       -23.1303
            261      -0.401835              0       -23.1303
            262      -0.401835              0       -23.1303
            263      -0.401835              0       -23.1303
            264      -0.401835              0       -23.1303
            265      -0.401835              0       -23.1303
            266      -0.401835              0       -23.1303
            267      -0.401835              0       -23.1303
            268      -0.401835              0       -23.1303
            269      -0.401835              0       -23.1303
            270      -0.401835              0       -23.1303
            271      -0.401835              0       -23.1303
            272      -0.401835              0       -23.1303
            273      -0.401835              0       -23.1303
            274      -0.401835              0       -23.1303
            275      -0.401835              0       -23.1303
            276      -0.401835              0       -23.1303
            277      -0.401835              0       -23.1303
            278      -0.401835              0       -23.1303
            279      -0.401835              0       -23.1303
            280      -0.401835              0       -23.1303
            281      -0.401835              0       -23.1303
            282      -0.401835              0       -23.1303
            283      -0.401835              0       -23.1303
            284      -0.401835              0       -23.1303
            285      -0.401835              0       -23.1303
            286      -0.401835              0       -23.1303
            287      -0.401835              0       -23.1303
            288      -0.401835              0       -23.1303
            289      -0.401835              0       -23.1303
            290      -0.401835              0       -23.1303
            291      -0.401835              0       -23.1303
            292      -0.401835              0       -23.1303
            293      -0.401835              0       -23.1303
            294      -0.401835              0       -23.1303
            295      -0.401835              0       -23.1303
            296      -0.401835              0       -23.1303
            297      -0.401835              0       -23.1303
            298      -0.401835              0       -23.1303
            299      -0.401835              0       -23.1303
            300      -0.401835              0       -23.1303
            301      -0.401835              0       -23.1303
            302      -0.401835              0       -23.1303
            303      -0.401835              0       -23.1303
            304      -0.401835              0       -23.1303
            305      -0.401835              0       -23.1303
            306      -0.401835              0       -23.1303
            307      -0.401835              0       -23.1303
            308      -0.401835              0       -23.1303
            309      -0.401835              0       -23.1303
            310      -0.401835              0       -23.1303
            311      -0.401835              0       -23.1303
            312      -0.401835              0       -23.1303
            313      -0.401835              0       -23.1303
            314      -0.401835              0       -23.1303
            315      -0.401835              0       -23.1303
            316      -0.401835              0       -23.1303
            317      -0.401835              0       -23.1303
            318      -0.401835              0       -23.1303
            319      -0.401835              0       -23.1303
            320      -0.401835              0       -23.1303
            321      -0.401835              0       -23.1303
            322      -0.401835              0       -23.1303
            323      -0.401835              0       -23.1303
            324      -0.401835              0       -23.1303
            325      -0.401835              0       -23.1303
