seed=1725259037
seed2=47
L=10
nstep=10000
tw=1
Jz=0
eps=5
alpha=0
Sz=0
pbc=0
type=1
beta=10
tau=0.001
Jxy=1
wc=10
ss=1
              1           -1.4              0       -5.00243
              2           -1.7              0       -5.66322
              3       -1.86667              0       -5.88812
              4          -2.05              0       -6.32451
              5          -2.16              0       -7.18831
              6       -2.23333              0       -7.76419
              7       -2.25714              0       -8.41342
              8         -2.275              0       -8.93048
              9       -2.24444              0       -9.55119
             10           -2.2              0       -10.1048
             11       -2.10909              0       -10.6521
             12          -2.05              0       -11.1181
             13       -2.01538              0       -11.5143
             14       -1.98571              0       -11.8528
             15          -1.96              0       -12.1824
             16        -1.9375              0       -12.4706
             17       -1.91765              0       -12.7453
             18           -1.9              0       -12.9905
             19       -1.88421              0       -13.2054
             20          -1.86              0       -13.4073
             21       -1.82857              0        -13.595
             22           -1.8              0       -13.7657
             23       -1.77391              0       -13.9249
             24          -1.75              0       -14.0699
             25         -1.728              0       -14.2033
             26         -1.728              0       -14.2033
             27         -1.728              0       -14.2033
             28         -1.728              0       -14.2033
             29         -1.728              0       -14.2033
             30         -1.728              0       -14.2033
             31         -1.728              0       -14.2033
             32         -1.728              0       -14.2033
             33         -1.728              0       -14.2033
             34         -1.728              0       -14.2033
             35         -1.728              0       -14.2033
             36         -1.728              0       -14.2033
             37         -1.728              0       -14.2033
             38         -1.728              0       -14.2033
             39         -1.728              0       -14.2033
             40         -1.728              0       -14.2033
             41         -1.728              0       -14.2033
             42         -1.728              0       -14.2033
             43         -1.728              0       -14.2033
             44         -1.728              0       -14.2033
             45         -1.728              0       -14.2033
             46         -1.728              0       -14.2033
             47         -1.728              0       -14.2033
             48         -1.728              0       -14.2033
             49         -1.728              0       -14.2033
             50         -1.728              0       -14.2033
             51         -1.728              0       -14.2033
             52         -1.728              0       -14.2033
             53         -1.728              0       -14.2033
             54         -1.728              0       -14.2033
             55         -1.728              0       -14.2033
             56         -1.728              0       -14.2033
             57         -1.728              0       -14.2033
             58         -1.728              0       -14.2033
             59         -1.728              0       -14.2033
             60         -1.728              0       -14.2033
             61         -1.728              0       -14.2033
             62         -1.728              0       -14.2033
             63         -1.728              0       -14.2033
             64         -1.728              0       -14.2033
             65         -1.728              0       -14.2033
             66         -1.728              0       -14.2033
             67         -1.728              0       -14.2033
             68         -1.728              0       -14.2033
             69         -1.728              0       -14.2033
             70         -1.728              0       -14.2033
             71         -1.728              0       -14.2033
             72         -1.728              0       -14.2033
             73         -1.728              0       -14.2033
             74         -1.728              0       -14.2033
             75         -1.728              0       -14.2033
             76         -1.728              0       -14.2033
             77         -1.728              0       -14.2033
             78         -1.728              0       -14.2033
             79         -1.728              0       -14.2033
             80         -1.728              0       -14.2033
             81         -1.728              0       -14.2033
             82         -1.728              0       -14.2033
             83         -1.728              0       -14.2033
             84         -1.728              0       -14.2033
             85         -1.728              0       -14.2033
             86         -1.728              0       -14.2033
             87         -1.728              0       -14.2033
             88         -1.728              0       -14.2033
             89         -1.728              0       -14.2033
             90         -1.728              0       -14.2033
             91         -1.728              0       -14.2033
             92         -1.728              0       -14.2033
             93         -1.728              0       -14.2033
             94         -1.728              0       -14.2033
             95         -1.728              0       -14.2033
             96         -1.728              0       -14.2033
             97         -1.728              0       -14.2033
             98         -1.728              0       -14.2033
             99         -1.728              0       -14.2033
            100         -1.728              0       -14.2033
            101         -1.728              0       -14.2033
            102         -1.728              0       -14.2033
            103         -1.728              0       -14.2033
            104         -1.728              0       -14.2033
            105         -1.728              0       -14.2033
            106         -1.728              0       -14.2033
            107         -1.728              0       -14.2033
            108         -1.728              0       -14.2033
            109         -1.728              0       -14.2033
            110         -1.728              0       -14.2033
            111         -1.728              0       -14.2033
            112         -1.728              0       -14.2033
            113         -1.728              0       -14.2033
            114         -1.728              0       -14.2033
            115         -1.728              0       -14.2033
            116         -1.728              0       -14.2033
            117         -1.728              0       -14.2033
            118         -1.728              0       -14.2033
            119         -1.728              0       -14.2033
            120         -1.728              0       -14.2033
            121         -1.728              0       -14.2033
            122         -1.728              0       -14.2033
            123         -1.728              0       -14.2033
            124         -1.728              0       -14.2033
            125         -1.728              0       -14.2033
            126         -1.728              0       -14.2033
            127         -1.728              0       -14.2033
            128         -1.728              0       -14.2033
            129         -1.728              0       -14.2033
            130         -1.728              0       -14.2033
            131         -1.728              0       -14.2033
            132         -1.728              0       -14.2033
            133         -1.728              0       -14.2033
            134         -1.728              0       -14.2033
            135         -1.728              0       -14.2033
            136         -1.728              0       -14.2033
            137         -1.728              0       -14.2033
            138         -1.728              0       -14.2033
            139         -1.728              0       -14.2033
            140         -1.728              0       -14.2033
            141         -1.728              0       -14.2033
            142         -1.728              0       -14.2033
            143         -1.728              0       -14.2033
            144         -1.728              0       -14.2033
            145         -1.728              0       -14.2033
            146         -1.728              0       -14.2033
            147         -1.728              0       -14.2033
            148         -1.728              0       -14.2033
            149         -1.728              0       -14.2033
            150         -1.728              0       -14.2033
            151         -1.728              0       -14.2033
            152         -1.728              0       -14.2033
            153         -1.728              0       -14.2033
            154         -1.728              0       -14.2033
            155         -1.728              0       -14.2033
            156         -1.728              0       -14.2033
            157         -1.728              0       -14.2033
            158         -1.728              0       -14.2033
            159         -1.728              0       -14.2033
            160         -1.728              0       -14.2033
            161         -1.728              0       -14.2033
            162         -1.728              0       -14.2033
            163         -1.728              0       -14.2033
            164         -1.728              0       -14.2033
            165         -1.728              0       -14.2033
            166         -1.728              0       -14.2033
            167         -1.728              0       -14.2033
            168         -1.728              0       -14.2033
            169         -1.728              0       -14.2033
            170         -1.728              0       -14.2033
            171         -1.728              0       -14.2033
            172         -1.728              0       -14.2033
            173         -1.728              0       -14.2033
            174         -1.728              0       -14.2033
            175         -1.728              0       -14.2033
            176         -1.728              0       -14.2033
            177         -1.728              0       -14.2033
            178         -1.728              0       -14.2033
            179         -1.728              0       -14.2033
            180         -1.728              0       -14.2033
            181         -1.728              0       -14.2033
            182         -1.728              0       -14.2033
            183         -1.728              0       -14.2033
            184         -1.728              0       -14.2033
            185         -1.728              0       -14.2033
            186         -1.728              0       -14.2033
            187         -1.728              0       -14.2033
            188         -1.728              0       -14.2033
            189         -1.728              0       -14.2033
            190         -1.728              0       -14.2033
            191         -1.728              0       -14.2033
            192         -1.728              0       -14.2033
            193         -1.728              0       -14.2033
            194         -1.728              0       -14.2033
            195         -1.728              0       -14.2033
            196         -1.728              0       -14.2033
            197         -1.728              0       -14.2033
            198         -1.728              0       -14.2033
            199         -1.728              0       -14.2033
            200         -1.728              0       -14.2033
            201         -1.728              0       -14.2033
            202         -1.728              0       -14.2033
            203         -1.728              0       -14.2033
            204         -1.728              0       -14.2033
            205         -1.728              0       -14.2033
            206         -1.728              0       -14.2033
            207         -1.728              0       -14.2033
            208         -1.728              0       -14.2033
            209         -1.728              0       -14.2033
            210         -1.728              0       -14.2033
            211         -1.728              0       -14.2033
            212         -1.728              0       -14.2033
            213         -1.728              0       -14.2033
            214         -1.728              0       -14.2033
            215         -1.728              0       -14.2033
            216         -1.728              0       -14.2033
            217         -1.728              0       -14.2033
            218         -1.728              0       -14.2033
            219         -1.728              0       -14.2033
            220         -1.728              0       -14.2033
            221         -1.728              0       -14.2033
            222         -1.728              0       -14.2033
            223         -1.728              0       -14.2033
            224         -1.728              0       -14.2033
            225         -1.728              0       -14.2033
            226         -1.728              0       -14.2033
            227         -1.728              0       -14.2033
            228         -1.728              0       -14.2033
            229         -1.728              0       -14.2033
            230         -1.728              0       -14.2033
            231         -1.728              0       -14.2033
            232         -1.728              0       -14.2033
            233         -1.728              0       -14.2033
            234         -1.728              0       -14.2033
            235         -1.728              0       -14.2033
            236         -1.728              0       -14.2033
            237         -1.728              0       -14.2033
            238         -1.728              0       -14.2033
            239         -1.728              0       -14.2033
            240         -1.728              0       -14.2033
            241         -1.728              0       -14.2033
            242         -1.728              0       -14.2033
            243         -1.728              0       -14.2033
            244         -1.728              0       -14.2033
            245         -1.728              0       -14.2033
            246         -1.728              0       -14.2033
            247         -1.728              0       -14.2033
            248         -1.728              0       -14.2033
            249         -1.728              0       -14.2033
            250         -1.728              0       -14.2033
            251         -1.728              0       -14.2033
            252         -1.728              0       -14.2033
            253         -1.728              0       -14.2033
            254         -1.728              0       -14.2033
            255         -1.728              0       -14.2033
            256         -1.728              0       -14.2033
            257         -1.728              0       -14.2033
            258         -1.728              0       -14.2033
            259         -1.728              0       -14.2033
            260         -1.728              0       -14.2033
            261         -1.728              0       -14.2033
            262         -1.728              0       -14.2033
            263         -1.728              0       -14.2033
            264         -1.728              0       -14.2033
            265         -1.728              0       -14.2033
            266         -1.728              0       -14.2033
            267         -1.728              0       -14.2033
            268         -1.728              0       -14.2033
            269         -1.728              0       -14.2033
            270         -1.728              0       -14.2033
            271         -1.728              0       -14.2033
            272         -1.728              0       -14.2033
            273         -1.728              0       -14.2033
            274         -1.728              0       -14.2033
            275         -1.728              0       -14.2033
            276         -1.728              0       -14.2033
            277         -1.728              0       -14.2033
            278         -1.728              0       -14.2033
            279         -1.728              0       -14.2033
            280         -1.728              0       -14.2033
            281         -1.728              0       -14.2033
            282         -1.728              0       -14.2033
            283         -1.728              0       -14.2033
            284         -1.728              0       -14.2033
            285         -1.728              0       -14.2033
            286         -1.728              0       -14.2033
            287         -1.728              0       -14.2033
            288         -1.728              0       -14.2033
            289         -1.728              0       -14.2033
            290         -1.728              0       -14.2033
            291         -1.728              0       -14.2033
            292         -1.728              0       -14.2033
            293         -1.728              0       -14.2033
            294         -1.728              0       -14.2033
            295         -1.728              0       -14.2033
            296         -1.728              0       -14.2033
            297         -1.728              0       -14.2033
            298         -1.728              0       -14.2033
            299         -1.728              0       -14.2033
            300         -1.728              0       -14.2033
            301         -1.728              0       -14.2033
            302         -1.728              0       -14.2033
            303         -1.728              0       -14.2033
            304         -1.728              0       -14.2033
            305         -1.728              0       -14.2033
            306         -1.728              0       -14.2033
            307         -1.728              0       -14.2033
            308         -1.728              0       -14.2033
            309         -1.728              0       -14.2033
            310         -1.728              0       -14.2033
            311         -1.728              0       -14.2033
            312         -1.728              0       -14.2033
            313         -1.728              0       -14.2033
            314         -1.728              0       -14.2033
            315         -1.728              0       -14.2033
            316         -1.728              0       -14.2033
            317         -1.728              0       -14.2033
            318         -1.728              0       -14.2033
            319         -1.728              0       -14.2033
            320         -1.728              0       -14.2033
            321         -1.728              0       -14.2033
            322         -1.728              0       -14.2033
            323         -1.728              0       -14.2033
            324         -1.728              0       -14.2033
            325         -1.728              0       -14.2033
