seed=1725278593
seed2=235
L=10
nstep=10000
tw=1
Jz=0
eps=5
alpha=0
Sz=0
pbc=0
type=1
beta=10
tau=0.001
Jxy=1
wc=10
ss=1
              1           -0.4              0        -23.969
              2           -0.5              0       -23.8872
              3           -0.6              0       -24.0051
              4           -0.6              0       -24.5146
              5          -0.64              0       -24.9736
              6           -0.7              0       -25.2837
              7      -0.742857              0       -25.5051
              8         -0.775              0       -25.6648
              9           -0.8              0       -25.7725
             10           -0.8              0       -25.8621
             11           -0.8              0       -26.0189
             12           -0.8              0        -26.155
             13           -0.8              0       -26.3755
             14      -0.785714              0       -26.5713
             15          -0.76              0       -26.7534
             16        -0.7375              0       -26.9127
             17      -0.717647              0       -27.0533
             18      -0.688889              0       -27.2294
             19      -0.663158              0       -27.3871
             20          -0.63              0       -27.5372
             21           -0.6              0        -27.673
             22      -0.572727              0       -27.7965
             23      -0.547826              0       -27.9092
             24         -0.525              0       -28.0126
             25         -0.512              0       -28.1071
             26      -0.492308              0       -28.1949
             27      -0.474074              0       -28.2762
             28      -0.464286              0       -28.3474
             29      -0.455172              0       -28.4137
             30      -0.446667              0       -28.4756
             31      -0.451613              0       -28.5294
             32       -0.45625              0       -28.5798
             33      -0.460606              0       -28.6303
             34      -0.464706              0       -28.6718
             35      -0.468571              0       -28.7151
             36      -0.466667              0       -28.7567
             37      -0.464865              0        -28.796
             38      -0.473684              0       -28.8265
             39      -0.476923              0        -28.862
             40          -0.48              0       -28.8957
             41      -0.482927              0       -28.9278
             42      -0.485714              0       -28.9583
             43      -0.488372              0       -28.9874
             44      -0.490909              0       -29.0152
             45      -0.493333              0       -29.0418
             46      -0.495652              0       -29.0609
             47      -0.493617              0       -29.0816
             48      -0.491667              0       -29.1014
             49      -0.489796              0       -29.1204
             50         -0.488              0       -29.1386
             51      -0.490196              0       -29.1552
             52      -0.492308              0       -29.1712
             53      -0.490566              0       -29.1928
             54      -0.488889              0       -29.2135
             55      -0.487273              0       -29.2335
             56      -0.485714              0       -29.2528
             57      -0.484211              0       -29.2714
             58       -0.47931              0       -29.2901
             59      -0.471186              0       -29.3088
             60      -0.463333              0       -29.3268
             61      -0.455738              0       -29.3442
             62      -0.448387              0        -29.361
             63       -0.44127              0       -29.3774
             64      -0.434375              0       -29.3932
             65      -0.427692              0       -29.4085
             66      -0.421212              0       -29.4234
             67      -0.414925              0       -29.4378
             68      -0.408824              0       -29.4518
             69      -0.402899              0       -29.4654
             70      -0.397143              0       -29.4786
             71      -0.391549              0       -29.4914
             72      -0.391667              0       -29.5002
             73      -0.386301              0       -29.5124
             74      -0.383784              0       -29.5212
             75         -0.384              0       -29.5295
             76      -0.384211              0       -29.5397
             77      -0.384416              0       -29.5497
             78      -0.384615              0       -29.5594
             79      -0.382278              0       -29.5698
             80        -0.3825              0       -29.5775
             81      -0.382716              0        -29.585
             82      -0.385366              0       -29.5901
             83      -0.383133              0       -29.5983
             84      -0.380952              0       -29.6063
             85      -0.378824              0       -29.6141
             86      -0.376744              0       -29.6217
             87       -0.37931              0        -29.627
             88      -0.379545              0       -29.6325
             89      -0.382022              0       -29.6377
             90      -0.384444              0       -29.6429
             91      -0.384615              0       -29.6492
             92      -0.386957              0       -29.6556
             93      -0.389247              0       -29.6618
             94      -0.391489              0       -29.6678
             95      -0.391579              0       -29.6753
             96      -0.391667              0       -29.6826
             97      -0.393814              0       -29.6879
             98      -0.395918              0       -29.6941
             99       -0.39798              0       -29.7002
            100           -0.4              0       -29.7068
            101           -0.4              0       -29.7134
            102      -0.401961              0       -29.7198
            103      -0.403883              0        -29.726
            104      -0.407692              0       -29.7314
            105      -0.409524              0       -29.7368
            106      -0.409434              0       -29.7427
            107      -0.409346              0       -29.7486
            108      -0.407407              0       -29.7544
            109      -0.407339              0         -29.76
            110      -0.407273              0       -29.7655
            111      -0.407207              0       -29.7709
            112      -0.408929              0       -29.7762
            113       -0.40885              0       -29.7815
            114      -0.410526              0        -29.786
            115      -0.412174              0       -29.7898
            116      -0.413793              0       -29.7936
            117      -0.415385              0       -29.7973
            118      -0.415254              0       -29.8022
            119      -0.411765              0       -29.8071
            120          -0.41              0        -29.811
            121      -0.409917              0        -29.812
            122      -0.409836              0       -29.8131
            123      -0.409756              0       -29.8141
            124      -0.409677              0       -29.8154
            125        -0.4096              0       -29.8168
            126      -0.411111              0        -29.818
            127      -0.412598              0       -29.8169
            128        -0.4125              0       -29.8184
            129      -0.412403              0       -29.8187
            130      -0.412308              0       -29.8189
            131      -0.412214              0       -29.8192
            132      -0.413636              0        -29.821
            133      -0.413534              0       -29.8239
            134      -0.413433              0       -29.8268
            135      -0.413333              0       -29.8297
            136      -0.413235              0       -29.8324
            137      -0.413139              0       -29.8352
            138      -0.413043              0       -29.8379
            139       -0.41295              0       -29.8406
            140      -0.412857              0       -29.8432
            141      -0.412766              0       -29.8465
            142      -0.414085              0       -29.8488
            143      -0.415385              0        -29.851
            144      -0.419444              0       -29.8518
            145      -0.424828              0       -29.8529
            146      -0.427397              0       -29.8543
            147      -0.428571              0       -29.8563
            148       -0.42973              0       -29.8582
            149      -0.430872              0       -29.8601
            150         -0.432              0       -29.8619
            151      -0.434437              0        -29.861
            152      -0.434211              0       -29.8612
            153       -0.43268              0       -29.8631
            154      -0.433766              0        -29.864
            155      -0.434839              0       -29.8648
            156      -0.437179              0       -29.8642
            157       -0.43949              0       -29.8635
            158      -0.440506              0       -29.8632
            159      -0.442767              0       -29.8592
            160       -0.44375              0       -29.8589
            161      -0.443478              0       -29.8589
            162       -0.44321              0        -29.859
            163      -0.442945              0        -29.859
            164      -0.441463              0       -29.8602
            165      -0.442424              0       -29.8587
            166      -0.444578              0       -29.8565
            167      -0.445509              0       -29.8534
            168      -0.447619              0       -29.8507
            169      -0.448521              0       -29.8501
            170      -0.448235              0       -29.8515
            171      -0.447953              0        -29.853
            172      -0.448837              0       -29.8543
            173      -0.449711              0       -29.8556
            174      -0.451724              0       -29.8562
            175      -0.453714              0       -29.8571
            176      -0.454545              0        -29.859
            177      -0.455367              0       -29.8609
            178      -0.455056              0       -29.8626
            179      -0.455866              0       -29.8632
            180      -0.456667              0       -29.8645
            181      -0.457459              0       -29.8664
            182      -0.457143              0       -29.8678
            183      -0.456831              0       -29.8693
            184      -0.456522              0       -29.8708
            185      -0.456216              0       -29.8731
            186      -0.454839              0       -29.8757
            187      -0.453476              0       -29.8784
            188      -0.452128              0        -29.881
            189      -0.451852              0       -29.8835
            190      -0.452632              0       -29.8855
            191      -0.453403              0       -29.8875
            192      -0.454167              0       -29.8888
            193      -0.454922              0       -29.8902
            194       -0.45567              0       -29.8907
            195       -0.45641              0       -29.8886
            196      -0.457143              0       -29.8866
            197      -0.457868              0       -29.8846
            198      -0.458586              0       -29.8826
            199      -0.459296              0       -29.8807
            200         -0.459              0       -29.8813
            201      -0.459701              0       -29.8817
            202      -0.461386              0       -29.8815
            203      -0.463054              0       -29.8813
            204      -0.463725              0       -29.8824
            205       -0.46439              0       -29.8841
            206      -0.466019              0       -29.8854
            207      -0.466667              0       -29.8867
            208      -0.468269              0       -29.8871
            209      -0.469856              0       -29.8875
            210      -0.470476              0       -29.8887
            211      -0.469194              0       -29.8908
            212      -0.467925              0       -29.8929
            213      -0.469484              0       -29.8945
            214      -0.471963              0       -29.8947
            215      -0.474419              0       -29.8949
            216      -0.476852              0       -29.8951
            217      -0.479263              0       -29.8953
            218      -0.482569              0        -29.895
            219      -0.484932              0       -29.8963
            220      -0.486364              0        -29.898
            221      -0.487783              0       -29.8991
            222      -0.489189              0       -29.8997
            223      -0.490583              0       -29.9003
            224      -0.491964              0       -29.9009
            225      -0.492444              0       -29.9022
            226      -0.493805              0       -29.9024
            227      -0.496035              0       -29.9025
            228      -0.497368              0       -29.9028
            229       -0.49869              0       -29.9029
            230       -0.50087              0       -29.9029
            231      -0.502165              0       -29.9041
            232      -0.503448              0       -29.9049
            233      -0.504721              0       -29.9058
            234      -0.507692              0       -29.9061
            235      -0.510638              0       -29.9049
            236      -0.513559              0       -29.9037
            237      -0.514768              0       -29.9051
            238      -0.515966              0       -29.9065
            239      -0.516318              0        -29.908
            240         -0.515              0       -29.9099
            241      -0.513693              0       -29.9119
            242      -0.512397              0       -29.9138
            243      -0.511111              0       -29.9158
            244      -0.509016              0       -29.9177
            245      -0.507755              0       -29.9193
            246      -0.506504              0       -29.9208
            247      -0.505263              0       -29.9216
            248      -0.504032              0       -29.9223
            249      -0.502008              0       -29.9242
            250        -0.5008              0       -29.9259
            251      -0.499602              0       -29.9276
            252      -0.499206              0        -29.929
            253      -0.500395              0       -29.9295
            254       -0.50315              0       -29.9296
            255      -0.505882              0         -29.93
            256      -0.507031              0       -29.9306
            257      -0.508949              0       -29.9297
            258      -0.510078              0       -29.9296
            259      -0.511197              0       -29.9295
            260      -0.511538              0        -29.931
            261      -0.511877              0       -29.9318
            262      -0.512214              0       -29.9325
            263      -0.511787              0       -29.9334
            264      -0.512879              0       -29.9337
            265      -0.513208              0       -29.9341
            266      -0.512782              0       -29.9345
            267       -0.51161              0       -29.9354
            268      -0.510448              0       -29.9363
            269      -0.510781              0       -29.9369
            270      -0.511111              0       -29.9377
            271      -0.512177              0       -29.9382
            272      -0.513235              0       -29.9376
            273      -0.514286              0       -29.9372
            274      -0.515328              0       -29.9369
            275      -0.515636              0       -29.9369
            276      -0.514493              0       -29.9383
            277      -0.513357              0       -29.9397
            278       -0.51223              0       -29.9409
            279      -0.511111              0       -29.9422
            280          -0.51              0       -29.9434
            281      -0.508897              0       -29.9446
            282      -0.508511              0       -29.9457
            283      -0.506714              0       -29.9472
            284       -0.50493              0       -29.9488
            285      -0.503158              0       -29.9503
            286      -0.501399              0       -29.9519
            287      -0.499652              0       -29.9534
            288      -0.497917              0       -29.9549
            289      -0.496194              0       -29.9564
            290      -0.494483              0       -29.9579
            291      -0.492784              0       -29.9594
            292      -0.491096              0       -29.9609
            293      -0.490102              0        -29.962
            294      -0.489796              0        -29.963
            295      -0.489492              0       -29.9639
            296      -0.488514              0       -29.9651
            297      -0.486869              0       -29.9665
            298      -0.485235              0       -29.9679
            299      -0.483612              0       -29.9693
            300         -0.482              0       -29.9707
            301      -0.480399              0       -29.9721
            302      -0.478808              0       -29.9735
            303      -0.477228              0       -29.9749
            304      -0.475658              0       -29.9762
            305      -0.474098              0       -29.9776
            306      -0.472549              0       -29.9789
            307       -0.47101              0       -29.9803
            308      -0.469481              0       -29.9816
            309      -0.467961              0       -29.9829
            310      -0.466452              0       -29.9842
            311      -0.464952              0       -29.9855
            312      -0.464103              0       -29.9868
            313      -0.463259              0       -29.9881
            314      -0.463057              0       -29.9893
            315      -0.462857              0       -29.9905
            316      -0.462658              0       -29.9916
            317      -0.463091              0       -29.9927
            318      -0.463522              0       -29.9936
            319       -0.46395              0       -29.9947
            320      -0.464375              0       -29.9958
            321      -0.464798              0       -29.9968
            322      -0.464596              0       -29.9978
            323      -0.465015              0       -29.9984
            324      -0.465432              0       -29.9989
            325      -0.466462              0       -29.9989
