seed=1725259037
seed2=41
L=10
nstep=10000
tw=1
Jz=0
eps=5
alpha=0
Sz=0
pbc=0
type=1
beta=10
tau=0.001
Jxy=1
wc=10
ss=1
              1           -0.4              0       -14.4951
              2           -0.6              0        -14.341
              3      -0.733333              0       -14.6785
              4           -0.8              0       -14.8472
              5          -0.88              0       -15.2319
              6      -0.933333              0       -15.4575
              7             -1              0       -15.6206
              8          -1.05              0       -15.7144
              9       -1.08889              0       -15.7894
             10          -1.14              0       -15.8546
             11           -1.2              0       -15.9431
             12       -1.23333              0       -16.2615
             13       -1.26154              0       -16.5194
             14       -1.28571              0        -16.764
             15          -1.28              0       -16.9673
             16        -1.2625              0        -17.144
             17       -1.27059              0       -17.4241
             18       -1.31111              0       -17.6775
             19       -1.34737              0       -17.9783
             20          -1.38              0       -18.2612
             21       -1.39048              0       -18.5387
             22       -1.39091              0        -18.812
             23       -1.38261              0       -19.0674
             24       -1.35833              0       -19.3047
             25         -1.344              0       -19.5154
             26       -1.33077              0       -19.7784
             27       -1.31852              0       -20.0263
             28       -1.31852              0       -20.0263
             29       -1.31852              0       -20.0263
             30       -1.31852              0       -20.0263
             31       -1.31852              0       -20.0263
             32       -1.31852              0       -20.0263
             33       -1.31852              0       -20.0263
             34       -1.31852              0       -20.0263
             35       -1.31852              0       -20.0263
             36       -1.31852              0       -20.0263
             37       -1.31852              0       -20.0263
             38       -1.31852              0       -20.0263
             39       -1.31852              0       -20.0263
             40       -1.31852              0       -20.0263
             41       -1.31852              0       -20.0263
             42       -1.31852              0       -20.0263
             43       -1.31852              0       -20.0263
             44       -1.31852              0       -20.0263
             45       -1.31852              0       -20.0263
             46       -1.31852              0       -20.0263
             47       -1.31852              0       -20.0263
             48       -1.31852              0       -20.0263
             49       -1.31852              0       -20.0263
             50       -1.31852              0       -20.0263
             51       -1.31852              0       -20.0263
             52       -1.31852              0       -20.0263
             53       -1.31852              0       -20.0263
             54       -1.31852              0       -20.0263
             55       -1.31852              0       -20.0263
             56       -1.31852              0       -20.0263
             57       -1.31852              0       -20.0263
             58       -1.31852              0       -20.0263
             59       -1.31852              0       -20.0263
             60       -1.31852              0       -20.0263
             61       -1.31852              0       -20.0263
             62       -1.31852              0       -20.0263
             63       -1.31852              0       -20.0263
             64       -1.31852              0       -20.0263
             65       -1.31852              0       -20.0263
             66       -1.31852              0       -20.0263
             67       -1.31852              0       -20.0263
             68       -1.31852              0       -20.0263
             69       -1.31852              0       -20.0263
             70       -1.31852              0       -20.0263
             71       -1.31852              0       -20.0263
             72       -1.31852              0       -20.0263
             73       -1.31852              0       -20.0263
             74       -1.31852              0       -20.0263
             75       -1.31852              0       -20.0263
             76       -1.31852              0       -20.0263
             77       -1.31852              0       -20.0263
             78       -1.31852              0       -20.0263
             79       -1.31852              0       -20.0263
             80       -1.31852              0       -20.0263
             81       -1.31852              0       -20.0263
             82       -1.31852              0       -20.0263
             83       -1.31852              0       -20.0263
             84       -1.31852              0       -20.0263
             85       -1.31852              0       -20.0263
             86       -1.31852              0       -20.0263
             87       -1.31852              0       -20.0263
             88       -1.31852              0       -20.0263
             89       -1.31852              0       -20.0263
             90       -1.31852              0       -20.0263
             91       -1.31852              0       -20.0263
             92       -1.31852              0       -20.0263
             93       -1.31852              0       -20.0263
             94       -1.31852              0       -20.0263
             95       -1.31852              0       -20.0263
             96       -1.31852              0       -20.0263
             97       -1.31852              0       -20.0263
             98       -1.31852              0       -20.0263
             99       -1.31852              0       -20.0263
            100       -1.31852              0       -20.0263
            101       -1.31852              0       -20.0263
            102       -1.31852              0       -20.0263
            103       -1.31852              0       -20.0263
            104       -1.31852              0       -20.0263
            105       -1.31852              0       -20.0263
            106       -1.31852              0       -20.0263
            107       -1.31852              0       -20.0263
            108       -1.31852              0       -20.0263
            109       -1.31852              0       -20.0263
            110       -1.31852              0       -20.0263
            111       -1.31852              0       -20.0263
            112       -1.31852              0       -20.0263
            113       -1.31852              0       -20.0263
            114       -1.31852              0       -20.0263
            115       -1.31852              0       -20.0263
            116       -1.31852              0       -20.0263
            117       -1.31852              0       -20.0263
            118       -1.31852              0       -20.0263
            119       -1.31852              0       -20.0263
            120       -1.31852              0       -20.0263
            121       -1.31852              0       -20.0263
            122       -1.31852              0       -20.0263
            123       -1.31852              0       -20.0263
            124       -1.31852              0       -20.0263
            125       -1.31852              0       -20.0263
            126       -1.31852              0       -20.0263
            127       -1.31852              0       -20.0263
            128       -1.31852              0       -20.0263
            129       -1.31852              0       -20.0263
            130       -1.31852              0       -20.0263
            131       -1.31852              0       -20.0263
            132       -1.31852              0       -20.0263
            133       -1.31852              0       -20.0263
            134       -1.31852              0       -20.0263
            135       -1.31852              0       -20.0263
            136       -1.31852              0       -20.0263
            137       -1.31852              0       -20.0263
            138       -1.31852              0       -20.0263
            139       -1.31852              0       -20.0263
            140       -1.31852              0       -20.0263
            141       -1.31852              0       -20.0263
            142       -1.31852              0       -20.0263
            143       -1.31852              0       -20.0263
            144       -1.31852              0       -20.0263
            145       -1.31852              0       -20.0263
            146       -1.31852              0       -20.0263
            147       -1.31852              0       -20.0263
            148       -1.31852              0       -20.0263
            149       -1.31852              0       -20.0263
            150       -1.31852              0       -20.0263
            151       -1.31852              0       -20.0263
            152       -1.31852              0       -20.0263
            153       -1.31852              0       -20.0263
            154       -1.31852              0       -20.0263
            155       -1.31852              0       -20.0263
            156       -1.31852              0       -20.0263
            157       -1.31852              0       -20.0263
            158       -1.31852              0       -20.0263
            159       -1.31852              0       -20.0263
            160       -1.31852              0       -20.0263
            161       -1.31852              0       -20.0263
            162       -1.31852              0       -20.0263
            163       -1.31852              0       -20.0263
            164       -1.31852              0       -20.0263
            165       -1.31852              0       -20.0263
            166       -1.31852              0       -20.0263
            167       -1.31852              0       -20.0263
            168       -1.31852              0       -20.0263
            169       -1.31852              0       -20.0263
            170       -1.31852              0       -20.0263
            171       -1.31852              0       -20.0263
            172       -1.31852              0       -20.0263
            173       -1.31852              0       -20.0263
            174       -1.31852              0       -20.0263
            175       -1.31852              0       -20.0263
            176       -1.31852              0       -20.0263
            177       -1.31852              0       -20.0263
            178       -1.31852              0       -20.0263
            179       -1.31852              0       -20.0263
            180       -1.31852              0       -20.0263
            181       -1.31852              0       -20.0263
            182       -1.31852              0       -20.0263
            183       -1.31852              0       -20.0263
            184       -1.31852              0       -20.0263
            185       -1.31852              0       -20.0263
            186       -1.31852              0       -20.0263
            187       -1.31852              0       -20.0263
            188       -1.31852              0       -20.0263
            189       -1.31852              0       -20.0263
            190       -1.31852              0       -20.0263
            191       -1.31852              0       -20.0263
            192       -1.31852              0       -20.0263
            193       -1.31852              0       -20.0263
            194       -1.31852              0       -20.0263
            195       -1.31852              0       -20.0263
            196       -1.31852              0       -20.0263
            197       -1.31852              0       -20.0263
            198       -1.31852              0       -20.0263
            199       -1.31852              0       -20.0263
            200       -1.31852              0       -20.0263
            201       -1.31852              0       -20.0263
            202       -1.31852              0       -20.0263
            203       -1.31852              0       -20.0263
            204       -1.31852              0       -20.0263
            205       -1.31852              0       -20.0263
            206       -1.31852              0       -20.0263
            207       -1.31852              0       -20.0263
            208       -1.31852              0       -20.0263
            209       -1.31852              0       -20.0263
            210       -1.31852              0       -20.0263
            211       -1.31852              0       -20.0263
            212       -1.31852              0       -20.0263
            213       -1.31852              0       -20.0263
            214       -1.31852              0       -20.0263
            215       -1.31852              0       -20.0263
            216       -1.31852              0       -20.0263
            217       -1.31852              0       -20.0263
            218       -1.31852              0       -20.0263
            219       -1.31852              0       -20.0263
            220       -1.31852              0       -20.0263
            221       -1.31852              0       -20.0263
            222       -1.31852              0       -20.0263
            223       -1.31852              0       -20.0263
            224       -1.31852              0       -20.0263
            225       -1.31852              0       -20.0263
            226       -1.31852              0       -20.0263
            227       -1.31852              0       -20.0263
            228       -1.31852              0       -20.0263
            229       -1.31852              0       -20.0263
            230       -1.31852              0       -20.0263
            231       -1.31852              0       -20.0263
            232       -1.31852              0       -20.0263
            233       -1.31852              0       -20.0263
            234       -1.31852              0       -20.0263
            235       -1.31852              0       -20.0263
            236       -1.31852              0       -20.0263
            237       -1.31852              0       -20.0263
            238       -1.31852              0       -20.0263
            239       -1.31852              0       -20.0263
            240       -1.31852              0       -20.0263
            241       -1.31852              0       -20.0263
            242       -1.31852              0       -20.0263
            243       -1.31852              0       -20.0263
            244       -1.31852              0       -20.0263
            245       -1.31852              0       -20.0263
            246       -1.31852              0       -20.0263
            247       -1.31852              0       -20.0263
            248       -1.31852              0       -20.0263
            249       -1.31852              0       -20.0263
            250       -1.31852              0       -20.0263
            251       -1.31852              0       -20.0263
            252       -1.31852              0       -20.0263
            253       -1.31852              0       -20.0263
            254       -1.31852              0       -20.0263
            255       -1.31852              0       -20.0263
            256       -1.31852              0       -20.0263
            257       -1.31852              0       -20.0263
            258       -1.31852              0       -20.0263
            259       -1.31852              0       -20.0263
            260       -1.31852              0       -20.0263
            261       -1.31852              0       -20.0263
            262       -1.31852              0       -20.0263
            263       -1.31852              0       -20.0263
            264       -1.31852              0       -20.0263
            265       -1.31852              0       -20.0263
            266       -1.31852              0       -20.0263
            267       -1.31852              0       -20.0263
            268       -1.31852              0       -20.0263
            269       -1.31852              0       -20.0263
            270       -1.31852              0       -20.0263
            271       -1.31852              0       -20.0263
            272       -1.31852              0       -20.0263
            273       -1.31852              0       -20.0263
            274       -1.31852              0       -20.0263
            275       -1.31852              0       -20.0263
            276       -1.31852              0       -20.0263
            277       -1.31852              0       -20.0263
            278       -1.31852              0       -20.0263
            279       -1.31852              0       -20.0263
            280       -1.31852              0       -20.0263
            281       -1.31852              0       -20.0263
            282       -1.31852              0       -20.0263
            283       -1.31852              0       -20.0263
            284       -1.31852              0       -20.0263
            285       -1.31852              0       -20.0263
            286       -1.31852              0       -20.0263
            287       -1.31852              0       -20.0263
            288       -1.31852              0       -20.0263
            289       -1.31852              0       -20.0263
            290       -1.31852              0       -20.0263
            291       -1.31852              0       -20.0263
            292       -1.31852              0       -20.0263
            293       -1.31852              0       -20.0263
            294       -1.31852              0       -20.0263
            295       -1.31852              0       -20.0263
            296       -1.31852              0       -20.0263
            297       -1.31852              0       -20.0263
            298       -1.31852              0       -20.0263
            299       -1.31852              0       -20.0263
            300       -1.31852              0       -20.0263
            301       -1.31852              0       -20.0263
            302       -1.31852              0       -20.0263
            303       -1.31852              0       -20.0263
            304       -1.31852              0       -20.0263
            305       -1.31852              0       -20.0263
            306       -1.31852              0       -20.0263
            307       -1.31852              0       -20.0263
            308       -1.31852              0       -20.0263
            309       -1.31852              0       -20.0263
            310       -1.31852              0       -20.0263
            311       -1.31852              0       -20.0263
            312       -1.31852              0       -20.0263
            313       -1.31852              0       -20.0263
            314       -1.31852              0       -20.0263
            315       -1.31852              0       -20.0263
            316       -1.31852              0       -20.0263
            317       -1.31852              0       -20.0263
            318       -1.31852              0       -20.0263
            319       -1.31852              0       -20.0263
            320       -1.31852              0       -20.0263
            321       -1.31852              0       -20.0263
            322       -1.31852              0       -20.0263
            323       -1.31852              0       -20.0263
            324       -1.31852              0       -20.0263
            325       -1.31852              0       -20.0263
