seed=1725259037
seed2=136
L=10
nstep=10000
tw=1
Jz=0
eps=5
alpha=0
Sz=0
pbc=0
type=1
beta=10
tau=0.001
Jxy=1
wc=10
ss=1
              1           -0.4              0       -9.87307
              2           -0.6              0       -10.2431
              3      -0.733333              0       -10.4726
              4           -0.9              0       -10.9322
              5          -1.04              0       -11.8915
              6       -1.13333              0       -13.0685
              7       -1.17143              0       -14.0202
              8         -1.175              0       -15.0795
              9       -1.15556              0       -16.2455
             10          -1.16              0       -17.2083
             11       -1.18182              0       -17.9885
             12       -1.18333              0       -18.6341
             13       -1.18462              0        -19.188
             14       -1.17143              0       -19.6587
             15          -1.16              0       -20.0627
             16        -1.1375              0       -20.4203
             17       -1.10588              0       -20.7389
             18       -1.06667              0       -21.0251
             19       -1.03158              0       -21.2812
             20             -1              0       -21.5117
             21      -0.971429              0       -21.7183
             22      -0.945455              0       -21.9062
             23      -0.913043              0       -22.0813
             24      -0.883333              0       -22.2418
             25         -0.856              0       -22.3919
             26      -0.823077              0       -22.5369
             27      -0.792593              0       -22.6711
             28      -0.764286              0       -22.7958
             29      -0.744828              0       -22.9114
             30          -0.72              0       -23.0197
             31      -0.696774              0       -23.1211
             32         -0.675              0       -23.2161
             33      -0.660606              0       -23.3046
             34      -0.647059              0        -23.388
             35      -0.634286              0       -23.4665
             36      -0.634286              0       -23.4665
             37      -0.634286              0       -23.4665
             38      -0.634286              0       -23.4665
             39      -0.634286              0       -23.4665
             40      -0.634286              0       -23.4665
             41      -0.634286              0       -23.4665
             42      -0.634286              0       -23.4665
             43      -0.634286              0       -23.4665
             44      -0.634286              0       -23.4665
             45      -0.634286              0       -23.4665
             46      -0.634286              0       -23.4665
             47      -0.634286              0       -23.4665
             48      -0.634286              0       -23.4665
             49      -0.634286              0       -23.4665
             50      -0.634286              0       -23.4665
             51      -0.634286              0       -23.4665
             52      -0.634286              0       -23.4665
             53      -0.634286              0       -23.4665
             54      -0.634286              0       -23.4665
             55      -0.634286              0       -23.4665
             56      -0.634286              0       -23.4665
             57      -0.634286              0       -23.4665
             58      -0.634286              0       -23.4665
             59      -0.634286              0       -23.4665
             60      -0.634286              0       -23.4665
             61      -0.634286              0       -23.4665
             62      -0.634286              0       -23.4665
             63      -0.634286              0       -23.4665
             64      -0.634286              0       -23.4665
             65      -0.634286              0       -23.4665
             66      -0.634286              0       -23.4665
             67      -0.634286              0       -23.4665
             68      -0.634286              0       -23.4665
             69      -0.634286              0       -23.4665
             70      -0.634286              0       -23.4665
             71      -0.634286              0       -23.4665
             72      -0.634286              0       -23.4665
             73      -0.634286              0       -23.4665
             74      -0.634286              0       -23.4665
             75      -0.634286              0       -23.4665
             76      -0.634286              0       -23.4665
             77      -0.634286              0       -23.4665
             78      -0.634286              0       -23.4665
             79      -0.634286              0       -23.4665
             80      -0.634286              0       -23.4665
             81      -0.634286              0       -23.4665
             82      -0.634286              0       -23.4665
             83      -0.634286              0       -23.4665
             84      -0.634286              0       -23.4665
             85      -0.634286              0       -23.4665
             86      -0.634286              0       -23.4665
             87      -0.634286              0       -23.4665
             88      -0.634286              0       -23.4665
             89      -0.634286              0       -23.4665
             90      -0.634286              0       -23.4665
             91      -0.634286              0       -23.4665
             92      -0.634286              0       -23.4665
             93      -0.634286              0       -23.4665
             94      -0.634286              0       -23.4665
             95      -0.634286              0       -23.4665
             96      -0.634286              0       -23.4665
             97      -0.634286              0       -23.4665
             98      -0.634286              0       -23.4665
             99      -0.634286              0       -23.4665
            100      -0.634286              0       -23.4665
            101      -0.634286              0       -23.4665
            102      -0.634286              0       -23.4665
            103      -0.634286              0       -23.4665
            104      -0.634286              0       -23.4665
            105      -0.634286              0       -23.4665
            106      -0.634286              0       -23.4665
            107      -0.634286              0       -23.4665
            108      -0.634286              0       -23.4665
            109      -0.634286              0       -23.4665
            110      -0.634286              0       -23.4665
            111      -0.634286              0       -23.4665
            112      -0.634286              0       -23.4665
            113      -0.634286              0       -23.4665
            114      -0.634286              0       -23.4665
            115      -0.634286              0       -23.4665
            116      -0.634286              0       -23.4665
            117      -0.634286              0       -23.4665
            118      -0.634286              0       -23.4665
            119      -0.634286              0       -23.4665
            120      -0.634286              0       -23.4665
            121      -0.634286              0       -23.4665
            122      -0.634286              0       -23.4665
            123      -0.634286              0       -23.4665
            124      -0.634286              0       -23.4665
            125      -0.634286              0       -23.4665
            126      -0.634286              0       -23.4665
            127      -0.634286              0       -23.4665
            128      -0.634286              0       -23.4665
            129      -0.634286              0       -23.4665
            130      -0.634286              0       -23.4665
            131      -0.634286              0       -23.4665
            132      -0.634286              0       -23.4665
            133      -0.634286              0       -23.4665
            134      -0.634286              0       -23.4665
            135      -0.634286              0       -23.4665
            136      -0.634286              0       -23.4665
            137      -0.634286              0       -23.4665
            138      -0.634286              0       -23.4665
            139      -0.634286              0       -23.4665
            140      -0.634286              0       -23.4665
            141      -0.634286              0       -23.4665
            142      -0.634286              0       -23.4665
            143      -0.634286              0       -23.4665
            144      -0.634286              0       -23.4665
            145      -0.634286              0       -23.4665
            146      -0.634286              0       -23.4665
            147      -0.634286              0       -23.4665
            148      -0.634286              0       -23.4665
            149      -0.634286              0       -23.4665
            150      -0.634286              0       -23.4665
            151      -0.634286              0       -23.4665
            152      -0.634286              0       -23.4665
            153      -0.634286              0       -23.4665
            154      -0.634286              0       -23.4665
            155      -0.634286              0       -23.4665
            156      -0.634286              0       -23.4665
            157      -0.634286              0       -23.4665
            158      -0.634286              0       -23.4665
            159      -0.634286              0       -23.4665
            160      -0.634286              0       -23.4665
            161      -0.634286              0       -23.4665
            162      -0.634286              0       -23.4665
            163      -0.634286              0       -23.4665
            164      -0.634286              0       -23.4665
            165      -0.634286              0       -23.4665
            166      -0.634286              0       -23.4665
            167      -0.634286              0       -23.4665
            168      -0.634286              0       -23.4665
            169      -0.634286              0       -23.4665
            170      -0.634286              0       -23.4665
            171      -0.634286              0       -23.4665
            172      -0.634286              0       -23.4665
            173      -0.634286              0       -23.4665
            174      -0.634286              0       -23.4665
            175      -0.634286              0       -23.4665
            176      -0.634286              0       -23.4665
            177      -0.634286              0       -23.4665
            178      -0.634286              0       -23.4665
            179      -0.634286              0       -23.4665
            180      -0.634286              0       -23.4665
            181      -0.634286              0       -23.4665
            182      -0.634286              0       -23.4665
            183      -0.634286              0       -23.4665
            184      -0.634286              0       -23.4665
            185      -0.634286              0       -23.4665
            186      -0.634286              0       -23.4665
            187      -0.634286              0       -23.4665
            188      -0.634286              0       -23.4665
            189      -0.634286              0       -23.4665
            190      -0.634286              0       -23.4665
            191      -0.634286              0       -23.4665
            192      -0.634286              0       -23.4665
            193      -0.634286              0       -23.4665
            194      -0.634286              0       -23.4665
            195      -0.634286              0       -23.4665
            196      -0.634286              0       -23.4665
            197      -0.634286              0       -23.4665
            198      -0.634286              0       -23.4665
            199      -0.634286              0       -23.4665
            200      -0.634286              0       -23.4665
            201      -0.634286              0       -23.4665
            202      -0.634286              0       -23.4665
            203      -0.634286              0       -23.4665
            204      -0.634286              0       -23.4665
            205      -0.634286              0       -23.4665
            206      -0.634286              0       -23.4665
            207      -0.634286              0       -23.4665
            208      -0.634286              0       -23.4665
            209      -0.634286              0       -23.4665
            210      -0.634286              0       -23.4665
            211      -0.634286              0       -23.4665
            212      -0.634286              0       -23.4665
            213      -0.634286              0       -23.4665
            214      -0.634286              0       -23.4665
            215      -0.634286              0       -23.4665
            216      -0.634286              0       -23.4665
            217      -0.634286              0       -23.4665
            218      -0.634286              0       -23.4665
            219      -0.634286              0       -23.4665
            220      -0.634286              0       -23.4665
            221      -0.634286              0       -23.4665
            222      -0.634286              0       -23.4665
            223      -0.634286              0       -23.4665
            224      -0.634286              0       -23.4665
            225      -0.634286              0       -23.4665
            226      -0.634286              0       -23.4665
            227      -0.634286              0       -23.4665
            228      -0.634286              0       -23.4665
            229      -0.634286              0       -23.4665
            230      -0.634286              0       -23.4665
            231      -0.634286              0       -23.4665
            232      -0.634286              0       -23.4665
            233      -0.634286              0       -23.4665
            234      -0.634286              0       -23.4665
            235      -0.634286              0       -23.4665
            236      -0.634286              0       -23.4665
            237      -0.634286              0       -23.4665
            238      -0.634286              0       -23.4665
            239      -0.634286              0       -23.4665
            240      -0.634286              0       -23.4665
            241      -0.634286              0       -23.4665
            242      -0.634286              0       -23.4665
            243      -0.634286              0       -23.4665
            244      -0.634286              0       -23.4665
            245      -0.634286              0       -23.4665
            246      -0.634286              0       -23.4665
            247      -0.634286              0       -23.4665
            248      -0.634286              0       -23.4665
            249      -0.634286              0       -23.4665
            250      -0.634286              0       -23.4665
            251      -0.634286              0       -23.4665
            252      -0.634286              0       -23.4665
            253      -0.634286              0       -23.4665
            254      -0.634286              0       -23.4665
            255      -0.634286              0       -23.4665
            256      -0.634286              0       -23.4665
            257      -0.634286              0       -23.4665
            258      -0.634286              0       -23.4665
            259      -0.634286              0       -23.4665
            260      -0.634286              0       -23.4665
            261      -0.634286              0       -23.4665
            262      -0.634286              0       -23.4665
            263      -0.634286              0       -23.4665
            264      -0.634286              0       -23.4665
            265      -0.634286              0       -23.4665
            266      -0.634286              0       -23.4665
            267      -0.634286              0       -23.4665
            268      -0.634286              0       -23.4665
            269      -0.634286              0       -23.4665
            270      -0.634286              0       -23.4665
            271      -0.634286              0       -23.4665
            272      -0.634286              0       -23.4665
            273      -0.634286              0       -23.4665
            274      -0.634286              0       -23.4665
            275      -0.634286              0       -23.4665
            276      -0.634286              0       -23.4665
            277      -0.634286              0       -23.4665
            278      -0.634286              0       -23.4665
            279      -0.634286              0       -23.4665
            280      -0.634286              0       -23.4665
            281      -0.634286              0       -23.4665
            282      -0.634286              0       -23.4665
            283      -0.634286              0       -23.4665
            284      -0.634286              0       -23.4665
            285      -0.634286              0       -23.4665
            286      -0.634286              0       -23.4665
            287      -0.634286              0       -23.4665
            288      -0.634286              0       -23.4665
            289      -0.634286              0       -23.4665
            290      -0.634286              0       -23.4665
            291      -0.634286              0       -23.4665
            292      -0.634286              0       -23.4665
            293      -0.634286              0       -23.4665
            294      -0.634286              0       -23.4665
            295      -0.634286              0       -23.4665
            296      -0.634286              0       -23.4665
            297      -0.634286              0       -23.4665
            298      -0.634286              0       -23.4665
            299      -0.634286              0       -23.4665
            300      -0.634286              0       -23.4665
            301      -0.634286              0       -23.4665
            302      -0.634286              0       -23.4665
            303      -0.634286              0       -23.4665
            304      -0.634286              0       -23.4665
            305      -0.634286              0       -23.4665
            306      -0.634286              0       -23.4665
            307      -0.634286              0       -23.4665
            308      -0.634286              0       -23.4665
            309      -0.634286              0       -23.4665
            310      -0.634286              0       -23.4665
            311      -0.634286              0       -23.4665
            312      -0.634286              0       -23.4665
            313      -0.634286              0       -23.4665
            314      -0.634286              0       -23.4665
            315      -0.634286              0       -23.4665
            316      -0.634286              0       -23.4665
            317      -0.634286              0       -23.4665
            318      -0.634286              0       -23.4665
            319      -0.634286              0       -23.4665
            320      -0.634286              0       -23.4665
            321      -0.634286              0       -23.4665
            322      -0.634286              0       -23.4665
            323      -0.634286              0       -23.4665
            324      -0.634286              0       -23.4665
            325      -0.634286              0       -23.4665
