seed=1725259037
seed2=265
L=10
nstep=10000
tw=1
Jz=0
eps=5
alpha=0
Sz=0
pbc=0
type=1
beta=10
tau=0.001
Jxy=1
wc=10
ss=1
              1           -0.4              0       -13.4743
              2           -0.6              0       -14.9636
              3           -0.8              0       -15.7618
              4           -0.9              0       -16.4191
              5          -0.96              0       -16.7914
              6      -0.966667              0       -17.0919
              7             -1              0       -17.3035
              8             -1              0       -17.4636
              9      -0.955556              0       -17.6455
             10          -0.92              0       -17.7975
             11      -0.890909              0       -17.9218
             12      -0.866667              0       -18.0269
             13      -0.846154              0       -18.1158
             14      -0.828571              0       -18.1921
             15      -0.813333              0       -18.2581
             16           -0.8              0       -18.3159
             17      -0.788235              0       -18.3669
             18      -0.777778              0       -18.4122
             19      -0.778947              0       -18.4552
             20          -0.78              0       -18.4938
             21      -0.790476              0       -18.5445
             22           -0.8              0       -18.5853
             23      -0.808696              0       -18.6201
             24      -0.816667              0       -18.6519
             25         -0.832              0       -18.6669
             26      -0.846154              0       -18.6807
             27      -0.859259              0       -18.6935
             28      -0.859259              0       -18.6935
             29      -0.859259              0       -18.6935
             30      -0.859259              0       -18.6935
             31      -0.859259              0       -18.6935
             32      -0.859259              0       -18.6935
             33      -0.859259              0       -18.6935
             34      -0.859259              0       -18.6935
             35      -0.859259              0       -18.6935
             36      -0.859259              0       -18.6935
             37      -0.859259              0       -18.6935
             38      -0.859259              0       -18.6935
             39      -0.859259              0       -18.6935
             40      -0.859259              0       -18.6935
             41      -0.859259              0       -18.6935
             42      -0.859259              0       -18.6935
             43      -0.859259              0       -18.6935
             44      -0.859259              0       -18.6935
             45      -0.859259              0       -18.6935
             46      -0.859259              0       -18.6935
             47      -0.859259              0       -18.6935
             48      -0.859259              0       -18.6935
             49      -0.859259              0       -18.6935
             50      -0.859259              0       -18.6935
             51      -0.859259              0       -18.6935
             52      -0.859259              0       -18.6935
             53      -0.859259              0       -18.6935
             54      -0.859259              0       -18.6935
             55      -0.859259              0       -18.6935
             56      -0.859259              0       -18.6935
             57      -0.859259              0       -18.6935
             58      -0.859259              0       -18.6935
             59      -0.859259              0       -18.6935
             60      -0.859259              0       -18.6935
             61      -0.859259              0       -18.6935
             62      -0.859259              0       -18.6935
             63      -0.859259              0       -18.6935
             64      -0.859259              0       -18.6935
             65      -0.859259              0       -18.6935
             66      -0.859259              0       -18.6935
             67      -0.859259              0       -18.6935
             68      -0.859259              0       -18.6935
             69      -0.859259              0       -18.6935
             70      -0.859259              0       -18.6935
             71      -0.859259              0       -18.6935
             72      -0.859259              0       -18.6935
             73      -0.859259              0       -18.6935
             74      -0.859259              0       -18.6935
             75      -0.859259              0       -18.6935
             76      -0.859259              0       -18.6935
             77      -0.859259              0       -18.6935
             78      -0.859259              0       -18.6935
             79      -0.859259              0       -18.6935
             80      -0.859259              0       -18.6935
             81      -0.859259              0       -18.6935
             82      -0.859259              0       -18.6935
             83      -0.859259              0       -18.6935
             84      -0.859259              0       -18.6935
             85      -0.859259              0       -18.6935
             86      -0.859259              0       -18.6935
             87      -0.859259              0       -18.6935
             88      -0.859259              0       -18.6935
             89      -0.859259              0       -18.6935
             90      -0.859259              0       -18.6935
             91      -0.859259              0       -18.6935
             92      -0.859259              0       -18.6935
             93      -0.859259              0       -18.6935
             94      -0.859259              0       -18.6935
             95      -0.859259              0       -18.6935
             96      -0.859259              0       -18.6935
             97      -0.859259              0       -18.6935
             98      -0.859259              0       -18.6935
             99      -0.859259              0       -18.6935
            100      -0.859259              0       -18.6935
            101      -0.859259              0       -18.6935
            102      -0.859259              0       -18.6935
            103      -0.859259              0       -18.6935
            104      -0.859259              0       -18.6935
            105      -0.859259              0       -18.6935
            106      -0.859259              0       -18.6935
            107      -0.859259              0       -18.6935
            108      -0.859259              0       -18.6935
            109      -0.859259              0       -18.6935
            110      -0.859259              0       -18.6935
            111      -0.859259              0       -18.6935
            112      -0.859259              0       -18.6935
            113      -0.859259              0       -18.6935
            114      -0.859259              0       -18.6935
            115      -0.859259              0       -18.6935
            116      -0.859259              0       -18.6935
            117      -0.859259              0       -18.6935
            118      -0.859259              0       -18.6935
            119      -0.859259              0       -18.6935
            120      -0.859259              0       -18.6935
            121      -0.859259              0       -18.6935
            122      -0.859259              0       -18.6935
            123      -0.859259              0       -18.6935
            124      -0.859259              0       -18.6935
            125      -0.859259              0       -18.6935
            126      -0.859259              0       -18.6935
            127      -0.859259              0       -18.6935
            128      -0.859259              0       -18.6935
            129      -0.859259              0       -18.6935
            130      -0.859259              0       -18.6935
            131      -0.859259              0       -18.6935
            132      -0.859259              0       -18.6935
            133      -0.859259              0       -18.6935
            134      -0.859259              0       -18.6935
            135      -0.859259              0       -18.6935
            136      -0.859259              0       -18.6935
            137      -0.859259              0       -18.6935
            138      -0.859259              0       -18.6935
            139      -0.859259              0       -18.6935
            140      -0.859259              0       -18.6935
            141      -0.859259              0       -18.6935
            142      -0.859259              0       -18.6935
            143      -0.859259              0       -18.6935
            144      -0.859259              0       -18.6935
            145      -0.859259              0       -18.6935
            146      -0.859259              0       -18.6935
            147      -0.859259              0       -18.6935
            148      -0.859259              0       -18.6935
            149      -0.859259              0       -18.6935
            150      -0.859259              0       -18.6935
            151      -0.859259              0       -18.6935
            152      -0.859259              0       -18.6935
            153      -0.859259              0       -18.6935
            154      -0.859259              0       -18.6935
            155      -0.859259              0       -18.6935
            156      -0.859259              0       -18.6935
            157      -0.859259              0       -18.6935
            158      -0.859259              0       -18.6935
            159      -0.859259              0       -18.6935
            160      -0.859259              0       -18.6935
            161      -0.859259              0       -18.6935
            162      -0.859259              0       -18.6935
            163      -0.859259              0       -18.6935
            164      -0.859259              0       -18.6935
            165      -0.859259              0       -18.6935
            166      -0.859259              0       -18.6935
            167      -0.859259              0       -18.6935
            168      -0.859259              0       -18.6935
            169      -0.859259              0       -18.6935
            170      -0.859259              0       -18.6935
            171      -0.859259              0       -18.6935
            172      -0.859259              0       -18.6935
            173      -0.859259              0       -18.6935
            174      -0.859259              0       -18.6935
            175      -0.859259              0       -18.6935
            176      -0.859259              0       -18.6935
            177      -0.859259              0       -18.6935
            178      -0.859259              0       -18.6935
            179      -0.859259              0       -18.6935
            180      -0.859259              0       -18.6935
            181      -0.859259              0       -18.6935
            182      -0.859259              0       -18.6935
            183      -0.859259              0       -18.6935
            184      -0.859259              0       -18.6935
            185      -0.859259              0       -18.6935
            186      -0.859259              0       -18.6935
            187      -0.859259              0       -18.6935
            188      -0.859259              0       -18.6935
            189      -0.859259              0       -18.6935
            190      -0.859259              0       -18.6935
            191      -0.859259              0       -18.6935
            192      -0.859259              0       -18.6935
            193      -0.859259              0       -18.6935
            194      -0.859259              0       -18.6935
            195      -0.859259              0       -18.6935
            196      -0.859259              0       -18.6935
            197      -0.859259              0       -18.6935
            198      -0.859259              0       -18.6935
            199      -0.859259              0       -18.6935
            200      -0.859259              0       -18.6935
            201      -0.859259              0       -18.6935
            202      -0.859259              0       -18.6935
            203      -0.859259              0       -18.6935
            204      -0.859259              0       -18.6935
            205      -0.859259              0       -18.6935
            206      -0.859259              0       -18.6935
            207      -0.859259              0       -18.6935
            208      -0.859259              0       -18.6935
            209      -0.859259              0       -18.6935
            210      -0.859259              0       -18.6935
            211      -0.859259              0       -18.6935
            212      -0.859259              0       -18.6935
            213      -0.859259              0       -18.6935
            214      -0.859259              0       -18.6935
            215      -0.859259              0       -18.6935
            216      -0.859259              0       -18.6935
            217      -0.859259              0       -18.6935
            218      -0.859259              0       -18.6935
            219      -0.859259              0       -18.6935
            220      -0.859259              0       -18.6935
            221      -0.859259              0       -18.6935
            222      -0.859259              0       -18.6935
            223      -0.859259              0       -18.6935
            224      -0.859259              0       -18.6935
            225      -0.859259              0       -18.6935
            226      -0.859259              0       -18.6935
            227      -0.859259              0       -18.6935
            228      -0.859259              0       -18.6935
            229      -0.859259              0       -18.6935
            230      -0.859259              0       -18.6935
            231      -0.859259              0       -18.6935
            232      -0.859259              0       -18.6935
            233      -0.859259              0       -18.6935
            234      -0.859259              0       -18.6935
            235      -0.859259              0       -18.6935
            236      -0.859259              0       -18.6935
            237      -0.859259              0       -18.6935
            238      -0.859259              0       -18.6935
            239      -0.859259              0       -18.6935
            240      -0.859259              0       -18.6935
            241      -0.859259              0       -18.6935
            242      -0.859259              0       -18.6935
            243      -0.859259              0       -18.6935
            244      -0.859259              0       -18.6935
            245      -0.859259              0       -18.6935
            246      -0.859259              0       -18.6935
            247      -0.859259              0       -18.6935
            248      -0.859259              0       -18.6935
            249      -0.859259              0       -18.6935
            250      -0.859259              0       -18.6935
            251      -0.859259              0       -18.6935
            252      -0.859259              0       -18.6935
            253      -0.859259              0       -18.6935
            254      -0.859259              0       -18.6935
            255      -0.859259              0       -18.6935
            256      -0.859259              0       -18.6935
            257      -0.859259              0       -18.6935
            258      -0.859259              0       -18.6935
            259      -0.859259              0       -18.6935
            260      -0.859259              0       -18.6935
            261      -0.859259              0       -18.6935
            262      -0.859259              0       -18.6935
            263      -0.859259              0       -18.6935
            264      -0.859259              0       -18.6935
            265      -0.859259              0       -18.6935
            266      -0.859259              0       -18.6935
            267      -0.859259              0       -18.6935
            268      -0.859259              0       -18.6935
            269      -0.859259              0       -18.6935
            270      -0.859259              0       -18.6935
            271      -0.859259              0       -18.6935
            272      -0.859259              0       -18.6935
            273      -0.859259              0       -18.6935
            274      -0.859259              0       -18.6935
            275      -0.859259              0       -18.6935
            276      -0.859259              0       -18.6935
            277      -0.859259              0       -18.6935
            278      -0.859259              0       -18.6935
            279      -0.859259              0       -18.6935
            280      -0.859259              0       -18.6935
            281      -0.859259              0       -18.6935
            282      -0.859259              0       -18.6935
            283      -0.859259              0       -18.6935
            284      -0.859259              0       -18.6935
            285      -0.859259              0       -18.6935
            286      -0.859259              0       -18.6935
            287      -0.859259              0       -18.6935
            288      -0.859259              0       -18.6935
            289      -0.859259              0       -18.6935
            290      -0.859259              0       -18.6935
            291      -0.859259              0       -18.6935
            292      -0.859259              0       -18.6935
            293      -0.859259              0       -18.6935
            294      -0.859259              0       -18.6935
            295      -0.859259              0       -18.6935
            296      -0.859259              0       -18.6935
            297      -0.859259              0       -18.6935
            298      -0.859259              0       -18.6935
            299      -0.859259              0       -18.6935
            300      -0.859259              0       -18.6935
            301      -0.859259              0       -18.6935
            302      -0.859259              0       -18.6935
            303      -0.859259              0       -18.6935
            304      -0.859259              0       -18.6935
            305      -0.859259              0       -18.6935
            306      -0.859259              0       -18.6935
            307      -0.859259              0       -18.6935
            308      -0.859259              0       -18.6935
            309      -0.859259              0       -18.6935
            310      -0.859259              0       -18.6935
            311      -0.859259              0       -18.6935
            312      -0.859259              0       -18.6935
            313      -0.859259              0       -18.6935
            314      -0.859259              0       -18.6935
            315      -0.859259              0       -18.6935
            316      -0.859259              0       -18.6935
            317      -0.859259              0       -18.6935
            318      -0.859259              0       -18.6935
            319      -0.859259              0       -18.6935
            320      -0.859259              0       -18.6935
            321      -0.859259              0       -18.6935
            322      -0.859259              0       -18.6935
            323      -0.859259              0       -18.6935
            324      -0.859259              0       -18.6935
            325      -0.859259              0       -18.6935
