seed=1725259037
seed2=143
L=10
nstep=10000
tw=1
Jz=0
eps=5
alpha=0
Sz=0
pbc=0
type=1
beta=10
tau=0.001
Jxy=1
wc=10
ss=1
              1              0              0       -23.5674
              2           -0.1              0       -24.1016
              3      -0.133333              0       -24.4419
              4           -0.2              0       -24.7182
              5          -0.24              0        -24.884
              6           -0.3              0       -25.4545
              7      -0.371429              0       -25.9469
              8          -0.45              0       -26.3126
              9      -0.555556              0        -26.613
             10           -0.6              0        -26.863
             11      -0.636364              0       -27.0672
             12      -0.666667              0       -27.2374
             13      -0.692308              0       -27.3814
             14      -0.714286              0        -27.532
             15      -0.746667              0       -27.6638
             16         -0.775              0       -27.7792
             17      -0.776471              0       -27.8959
             18      -0.766667              0       -28.0035
             19      -0.747368              0       -28.0999
             20          -0.74              0       -28.1839
             21       -0.72381              0       -28.2622
             22      -0.718182              0       -28.3255
             23      -0.713043              0       -28.3832
             24      -0.708333              0       -28.4361
             25         -0.696              0       -28.4911
             26      -0.692308              0       -28.5363
             27      -0.674074              0        -28.585
             28      -0.657143              0       -28.6302
             29      -0.641379              0       -28.6723
             30      -0.633333              0       -28.7047
             31      -0.632258              0        -28.733
             32       -0.63125              0       -28.7596
             33      -0.624242              0       -28.7907
             34      -0.623529              0       -28.8175
             35      -0.628571              0       -28.8381
             36      -0.633333              0       -28.8614
             37      -0.632432              0       -28.8858
             38      -0.631579              0       -28.8967
             39      -0.630769              0       -28.9166
             40          -0.63              0       -28.9301
             41      -0.629268              0       -28.9429
             42       -0.62381              0       -28.9643
             43      -0.618605              0       -28.9846
             44      -0.613636              0       -29.0041
             45      -0.608889              0       -29.0226
             46      -0.604348              0       -29.0404
             47           -0.6              0       -29.0574
             48      -0.604167              0       -29.0721
             49      -0.608163              0        -29.087
             50         -0.612              0       -29.1013
             51      -0.611765              0       -29.1152
             52      -0.611538              0       -29.1285
             53      -0.607547              0       -29.1419
             54           -0.6              0       -29.1556
             55      -0.592727              0       -29.1688
             56      -0.585714              0       -29.1816
             57      -0.578947              0       -29.1934
             58      -0.572414              0       -29.2047
             59      -0.569492              0       -29.2107
             60      -0.566667              0       -29.2164
             61      -0.563934              0       -29.2259
             62       -0.56129              0       -29.2351
             63      -0.555556              0       -29.2448
             64          -0.55              0       -29.2542
             65      -0.544615              0       -29.2633
             66      -0.539394              0       -29.2715
             67      -0.534328              0       -29.2795
             68      -0.529412              0       -29.2872
             69      -0.524638              0       -29.2947
             70      -0.517143              0       -29.3034
             71      -0.509859              0       -29.3119
             72      -0.502778              0       -29.3201
             73       -0.49863              0       -29.3264
             74      -0.497297              0       -29.3297
             75      -0.493333              0       -29.3361
             76      -0.486842              0       -29.3436
             77      -0.480519              0       -29.3509
             78      -0.474359              0        -29.358
             79      -0.468354              0       -29.3649
             80        -0.4625              0       -29.3717
             81        -0.4625              0       -29.3717
             82        -0.4625              0       -29.3717
             83        -0.4625              0       -29.3717
             84        -0.4625              0       -29.3717
             85        -0.4625              0       -29.3717
             86        -0.4625              0       -29.3717
             87        -0.4625              0       -29.3717
             88        -0.4625              0       -29.3717
             89        -0.4625              0       -29.3717
             90        -0.4625              0       -29.3717
             91        -0.4625              0       -29.3717
             92        -0.4625              0       -29.3717
             93        -0.4625              0       -29.3717
             94        -0.4625              0       -29.3717
             95        -0.4625              0       -29.3717
             96        -0.4625              0       -29.3717
             97        -0.4625              0       -29.3717
             98        -0.4625              0       -29.3717
             99        -0.4625              0       -29.3717
            100        -0.4625              0       -29.3717
            101        -0.4625              0       -29.3717
            102        -0.4625              0       -29.3717
            103        -0.4625              0       -29.3717
            104        -0.4625              0       -29.3717
            105        -0.4625              0       -29.3717
            106        -0.4625              0       -29.3717
            107        -0.4625              0       -29.3717
            108        -0.4625              0       -29.3717
            109        -0.4625              0       -29.3717
            110        -0.4625              0       -29.3717
            111        -0.4625              0       -29.3717
            112        -0.4625              0       -29.3717
            113        -0.4625              0       -29.3717
            114        -0.4625              0       -29.3717
            115        -0.4625              0       -29.3717
            116        -0.4625              0       -29.3717
            117        -0.4625              0       -29.3717
            118        -0.4625              0       -29.3717
            119        -0.4625              0       -29.3717
            120        -0.4625              0       -29.3717
            121        -0.4625              0       -29.3717
            122        -0.4625              0       -29.3717
            123        -0.4625              0       -29.3717
            124        -0.4625              0       -29.3717
            125        -0.4625              0       -29.3717
            126        -0.4625              0       -29.3717
            127        -0.4625              0       -29.3717
            128        -0.4625              0       -29.3717
            129        -0.4625              0       -29.3717
            130        -0.4625              0       -29.3717
            131        -0.4625              0       -29.3717
            132        -0.4625              0       -29.3717
            133        -0.4625              0       -29.3717
            134        -0.4625              0       -29.3717
            135        -0.4625              0       -29.3717
            136        -0.4625              0       -29.3717
            137        -0.4625              0       -29.3717
            138        -0.4625              0       -29.3717
            139        -0.4625              0       -29.3717
            140        -0.4625              0       -29.3717
            141        -0.4625              0       -29.3717
            142        -0.4625              0       -29.3717
            143        -0.4625              0       -29.3717
            144        -0.4625              0       -29.3717
            145        -0.4625              0       -29.3717
            146        -0.4625              0       -29.3717
            147        -0.4625              0       -29.3717
            148        -0.4625              0       -29.3717
            149        -0.4625              0       -29.3717
            150        -0.4625              0       -29.3717
            151        -0.4625              0       -29.3717
            152        -0.4625              0       -29.3717
            153        -0.4625              0       -29.3717
            154        -0.4625              0       -29.3717
            155        -0.4625              0       -29.3717
            156        -0.4625              0       -29.3717
            157        -0.4625              0       -29.3717
            158        -0.4625              0       -29.3717
            159        -0.4625              0       -29.3717
            160        -0.4625              0       -29.3717
            161        -0.4625              0       -29.3717
            162        -0.4625              0       -29.3717
            163        -0.4625              0       -29.3717
            164        -0.4625              0       -29.3717
            165        -0.4625              0       -29.3717
            166        -0.4625              0       -29.3717
            167        -0.4625              0       -29.3717
            168        -0.4625              0       -29.3717
            169        -0.4625              0       -29.3717
            170        -0.4625              0       -29.3717
            171        -0.4625              0       -29.3717
            172        -0.4625              0       -29.3717
            173        -0.4625              0       -29.3717
            174        -0.4625              0       -29.3717
            175        -0.4625              0       -29.3717
            176        -0.4625              0       -29.3717
            177        -0.4625              0       -29.3717
            178        -0.4625              0       -29.3717
            179        -0.4625              0       -29.3717
            180        -0.4625              0       -29.3717
            181        -0.4625              0       -29.3717
            182        -0.4625              0       -29.3717
            183        -0.4625              0       -29.3717
            184        -0.4625              0       -29.3717
            185        -0.4625              0       -29.3717
            186        -0.4625              0       -29.3717
            187        -0.4625              0       -29.3717
            188        -0.4625              0       -29.3717
            189        -0.4625              0       -29.3717
            190        -0.4625              0       -29.3717
            191        -0.4625              0       -29.3717
            192        -0.4625              0       -29.3717
            193        -0.4625              0       -29.3717
            194        -0.4625              0       -29.3717
            195        -0.4625              0       -29.3717
            196        -0.4625              0       -29.3717
            197        -0.4625              0       -29.3717
            198        -0.4625              0       -29.3717
            199        -0.4625              0       -29.3717
            200        -0.4625              0       -29.3717
            201        -0.4625              0       -29.3717
            202        -0.4625              0       -29.3717
            203        -0.4625              0       -29.3717
            204        -0.4625              0       -29.3717
            205        -0.4625              0       -29.3717
            206        -0.4625              0       -29.3717
            207        -0.4625              0       -29.3717
            208        -0.4625              0       -29.3717
            209        -0.4625              0       -29.3717
            210        -0.4625              0       -29.3717
            211        -0.4625              0       -29.3717
            212        -0.4625              0       -29.3717
            213        -0.4625              0       -29.3717
            214        -0.4625              0       -29.3717
            215        -0.4625              0       -29.3717
            216        -0.4625              0       -29.3717
            217        -0.4625              0       -29.3717
            218        -0.4625              0       -29.3717
            219        -0.4625              0       -29.3717
            220        -0.4625              0       -29.3717
            221        -0.4625              0       -29.3717
            222        -0.4625              0       -29.3717
            223        -0.4625              0       -29.3717
            224        -0.4625              0       -29.3717
            225        -0.4625              0       -29.3717
            226        -0.4625              0       -29.3717
            227        -0.4625              0       -29.3717
            228        -0.4625              0       -29.3717
            229        -0.4625              0       -29.3717
            230        -0.4625              0       -29.3717
            231        -0.4625              0       -29.3717
            232        -0.4625              0       -29.3717
            233        -0.4625              0       -29.3717
            234        -0.4625              0       -29.3717
            235        -0.4625              0       -29.3717
            236        -0.4625              0       -29.3717
            237        -0.4625              0       -29.3717
            238        -0.4625              0       -29.3717
            239        -0.4625              0       -29.3717
            240        -0.4625              0       -29.3717
            241        -0.4625              0       -29.3717
            242        -0.4625              0       -29.3717
            243        -0.4625              0       -29.3717
            244        -0.4625              0       -29.3717
            245        -0.4625              0       -29.3717
            246        -0.4625              0       -29.3717
            247        -0.4625              0       -29.3717
            248        -0.4625              0       -29.3717
            249        -0.4625              0       -29.3717
            250        -0.4625              0       -29.3717
            251        -0.4625              0       -29.3717
            252        -0.4625              0       -29.3717
            253        -0.4625              0       -29.3717
            254        -0.4625              0       -29.3717
            255        -0.4625              0       -29.3717
            256        -0.4625              0       -29.3717
            257        -0.4625              0       -29.3717
            258        -0.4625              0       -29.3717
            259        -0.4625              0       -29.3717
            260        -0.4625              0       -29.3717
            261        -0.4625              0       -29.3717
            262        -0.4625              0       -29.3717
            263        -0.4625              0       -29.3717
            264        -0.4625              0       -29.3717
            265        -0.4625              0       -29.3717
            266        -0.4625              0       -29.3717
            267        -0.4625              0       -29.3717
            268        -0.4625              0       -29.3717
            269        -0.4625              0       -29.3717
            270        -0.4625              0       -29.3717
            271        -0.4625              0       -29.3717
            272        -0.4625              0       -29.3717
            273        -0.4625              0       -29.3717
            274        -0.4625              0       -29.3717
            275        -0.4625              0       -29.3717
            276        -0.4625              0       -29.3717
            277        -0.4625              0       -29.3717
            278        -0.4625              0       -29.3717
            279        -0.4625              0       -29.3717
            280        -0.4625              0       -29.3717
            281        -0.4625              0       -29.3717
            282        -0.4625              0       -29.3717
            283        -0.4625              0       -29.3717
            284        -0.4625              0       -29.3717
            285        -0.4625              0       -29.3717
            286        -0.4625              0       -29.3717
            287        -0.4625              0       -29.3717
            288        -0.4625              0       -29.3717
            289        -0.4625              0       -29.3717
            290        -0.4625              0       -29.3717
            291        -0.4625              0       -29.3717
            292        -0.4625              0       -29.3717
            293        -0.4625              0       -29.3717
            294        -0.4625              0       -29.3717
            295        -0.4625              0       -29.3717
            296        -0.4625              0       -29.3717
            297        -0.4625              0       -29.3717
            298        -0.4625              0       -29.3717
            299        -0.4625              0       -29.3717
            300        -0.4625              0       -29.3717
            301        -0.4625              0       -29.3717
            302        -0.4625              0       -29.3717
            303        -0.4625              0       -29.3717
            304        -0.4625              0       -29.3717
            305        -0.4625              0       -29.3717
            306        -0.4625              0       -29.3717
            307        -0.4625              0       -29.3717
            308        -0.4625              0       -29.3717
            309        -0.4625              0       -29.3717
            310        -0.4625              0       -29.3717
            311        -0.4625              0       -29.3717
            312        -0.4625              0       -29.3717
            313        -0.4625              0       -29.3717
            314        -0.4625              0       -29.3717
            315        -0.4625              0       -29.3717
            316        -0.4625              0       -29.3717
            317        -0.4625              0       -29.3717
            318        -0.4625              0       -29.3717
            319        -0.4625              0       -29.3717
            320        -0.4625              0       -29.3717
            321        -0.4625              0       -29.3717
            322        -0.4625              0       -29.3717
            323        -0.4625              0       -29.3717
            324        -0.4625              0       -29.3717
            325        -0.4625              0       -29.3717
