seed=1725259037
seed2=227
L=10
nstep=10000
tw=1
Jz=0
eps=5
alpha=0
Sz=0
pbc=0
type=1
beta=10
tau=0.001
Jxy=1
wc=10
ss=1
              1           -0.4              0       -14.5488
              2           -0.4              0       -14.5488
              3      -0.466667              0       -14.5519
              4          -0.55              0       -14.5934
              5           -0.6              0       -14.6182
              6      -0.666667              0       -14.7031
              7      -0.714286              0       -14.7648
              8         -0.775              0       -14.8591
              9           -0.8              0       -14.9367
             10          -0.86              0       -15.0023
             11      -0.927273              0       -15.0535
             12      -0.983333              0       -15.0958
             13       -1.04615              0       -15.1227
             14       -1.08571              0       -15.1533
             15       -1.10667              0        -15.161
             16        -1.1125              0       -15.1992
             17       -1.10588              0       -15.2627
             18           -1.1              0       -15.3192
             19       -1.09474              0       -15.3697
             20          -1.09              0       -15.4152
             21          -1.09              0       -15.4152
             22          -1.09              0       -15.4152
             23          -1.09              0       -15.4152
             24          -1.09              0       -15.4152
             25          -1.09              0       -15.4152
             26          -1.09              0       -15.4152
             27          -1.09              0       -15.4152
             28          -1.09              0       -15.4152
             29          -1.09              0       -15.4152
             30          -1.09              0       -15.4152
             31          -1.09              0       -15.4152
             32          -1.09              0       -15.4152
             33          -1.09              0       -15.4152
             34          -1.09              0       -15.4152
             35          -1.09              0       -15.4152
             36          -1.09              0       -15.4152
             37          -1.09              0       -15.4152
             38          -1.09              0       -15.4152
             39          -1.09              0       -15.4152
             40          -1.09              0       -15.4152
             41          -1.09              0       -15.4152
             42          -1.09              0       -15.4152
             43          -1.09              0       -15.4152
             44          -1.09              0       -15.4152
             45          -1.09              0       -15.4152
             46          -1.09              0       -15.4152
             47          -1.09              0       -15.4152
             48          -1.09              0       -15.4152
             49          -1.09              0       -15.4152
             50          -1.09              0       -15.4152
             51          -1.09              0       -15.4152
             52          -1.09              0       -15.4152
             53          -1.09              0       -15.4152
             54          -1.09              0       -15.4152
             55          -1.09              0       -15.4152
             56          -1.09              0       -15.4152
             57          -1.09              0       -15.4152
             58          -1.09              0       -15.4152
             59          -1.09              0       -15.4152
             60          -1.09              0       -15.4152
             61          -1.09              0       -15.4152
             62          -1.09              0       -15.4152
             63          -1.09              0       -15.4152
             64          -1.09              0       -15.4152
             65          -1.09              0       -15.4152
             66          -1.09              0       -15.4152
             67          -1.09              0       -15.4152
             68          -1.09              0       -15.4152
             69          -1.09              0       -15.4152
             70          -1.09              0       -15.4152
             71          -1.09              0       -15.4152
             72          -1.09              0       -15.4152
             73          -1.09              0       -15.4152
             74          -1.09              0       -15.4152
             75          -1.09              0       -15.4152
             76          -1.09              0       -15.4152
             77          -1.09              0       -15.4152
             78          -1.09              0       -15.4152
             79          -1.09              0       -15.4152
             80          -1.09              0       -15.4152
             81          -1.09              0       -15.4152
             82          -1.09              0       -15.4152
             83          -1.09              0       -15.4152
             84          -1.09              0       -15.4152
             85          -1.09              0       -15.4152
             86          -1.09              0       -15.4152
             87          -1.09              0       -15.4152
             88          -1.09              0       -15.4152
             89          -1.09              0       -15.4152
             90          -1.09              0       -15.4152
             91          -1.09              0       -15.4152
             92          -1.09              0       -15.4152
             93          -1.09              0       -15.4152
             94          -1.09              0       -15.4152
             95          -1.09              0       -15.4152
             96          -1.09              0       -15.4152
             97          -1.09              0       -15.4152
             98          -1.09              0       -15.4152
             99          -1.09              0       -15.4152
            100          -1.09              0       -15.4152
            101          -1.09              0       -15.4152
            102          -1.09              0       -15.4152
            103          -1.09              0       -15.4152
            104          -1.09              0       -15.4152
            105          -1.09              0       -15.4152
            106          -1.09              0       -15.4152
            107          -1.09              0       -15.4152
            108          -1.09              0       -15.4152
            109          -1.09              0       -15.4152
            110          -1.09              0       -15.4152
            111          -1.09              0       -15.4152
            112          -1.09              0       -15.4152
            113          -1.09              0       -15.4152
            114          -1.09              0       -15.4152
            115          -1.09              0       -15.4152
            116          -1.09              0       -15.4152
            117          -1.09              0       -15.4152
            118          -1.09              0       -15.4152
            119          -1.09              0       -15.4152
            120          -1.09              0       -15.4152
            121          -1.09              0       -15.4152
            122          -1.09              0       -15.4152
            123          -1.09              0       -15.4152
            124          -1.09              0       -15.4152
            125          -1.09              0       -15.4152
            126          -1.09              0       -15.4152
            127          -1.09              0       -15.4152
            128          -1.09              0       -15.4152
            129          -1.09              0       -15.4152
            130          -1.09              0       -15.4152
            131          -1.09              0       -15.4152
            132          -1.09              0       -15.4152
            133          -1.09              0       -15.4152
            134          -1.09              0       -15.4152
            135          -1.09              0       -15.4152
            136          -1.09              0       -15.4152
            137          -1.09              0       -15.4152
            138          -1.09              0       -15.4152
            139          -1.09              0       -15.4152
            140          -1.09              0       -15.4152
            141          -1.09              0       -15.4152
            142          -1.09              0       -15.4152
            143          -1.09              0       -15.4152
            144          -1.09              0       -15.4152
            145          -1.09              0       -15.4152
            146          -1.09              0       -15.4152
            147          -1.09              0       -15.4152
            148          -1.09              0       -15.4152
            149          -1.09              0       -15.4152
            150          -1.09              0       -15.4152
            151          -1.09              0       -15.4152
            152          -1.09              0       -15.4152
            153          -1.09              0       -15.4152
            154          -1.09              0       -15.4152
            155          -1.09              0       -15.4152
            156          -1.09              0       -15.4152
            157          -1.09              0       -15.4152
            158          -1.09              0       -15.4152
            159          -1.09              0       -15.4152
            160          -1.09              0       -15.4152
            161          -1.09              0       -15.4152
            162          -1.09              0       -15.4152
            163          -1.09              0       -15.4152
            164          -1.09              0       -15.4152
            165          -1.09              0       -15.4152
            166          -1.09              0       -15.4152
            167          -1.09              0       -15.4152
            168          -1.09              0       -15.4152
            169          -1.09              0       -15.4152
            170          -1.09              0       -15.4152
            171          -1.09              0       -15.4152
            172          -1.09              0       -15.4152
            173          -1.09              0       -15.4152
            174          -1.09              0       -15.4152
            175          -1.09              0       -15.4152
            176          -1.09              0       -15.4152
            177          -1.09              0       -15.4152
            178          -1.09              0       -15.4152
            179          -1.09              0       -15.4152
            180          -1.09              0       -15.4152
            181          -1.09              0       -15.4152
            182          -1.09              0       -15.4152
            183          -1.09              0       -15.4152
            184          -1.09              0       -15.4152
            185          -1.09              0       -15.4152
            186          -1.09              0       -15.4152
            187          -1.09              0       -15.4152
            188          -1.09              0       -15.4152
            189          -1.09              0       -15.4152
            190          -1.09              0       -15.4152
            191          -1.09              0       -15.4152
            192          -1.09              0       -15.4152
            193          -1.09              0       -15.4152
            194          -1.09              0       -15.4152
            195          -1.09              0       -15.4152
            196          -1.09              0       -15.4152
            197          -1.09              0       -15.4152
            198          -1.09              0       -15.4152
            199          -1.09              0       -15.4152
            200          -1.09              0       -15.4152
            201          -1.09              0       -15.4152
            202          -1.09              0       -15.4152
            203          -1.09              0       -15.4152
            204          -1.09              0       -15.4152
            205          -1.09              0       -15.4152
            206          -1.09              0       -15.4152
            207          -1.09              0       -15.4152
            208          -1.09              0       -15.4152
            209          -1.09              0       -15.4152
            210          -1.09              0       -15.4152
            211          -1.09              0       -15.4152
            212          -1.09              0       -15.4152
            213          -1.09              0       -15.4152
            214          -1.09              0       -15.4152
            215          -1.09              0       -15.4152
            216          -1.09              0       -15.4152
            217          -1.09              0       -15.4152
            218          -1.09              0       -15.4152
            219          -1.09              0       -15.4152
            220          -1.09              0       -15.4152
            221          -1.09              0       -15.4152
            222          -1.09              0       -15.4152
            223          -1.09              0       -15.4152
            224          -1.09              0       -15.4152
            225          -1.09              0       -15.4152
            226          -1.09              0       -15.4152
            227          -1.09              0       -15.4152
            228          -1.09              0       -15.4152
            229          -1.09              0       -15.4152
            230          -1.09              0       -15.4152
            231          -1.09              0       -15.4152
            232          -1.09              0       -15.4152
            233          -1.09              0       -15.4152
            234          -1.09              0       -15.4152
            235          -1.09              0       -15.4152
            236          -1.09              0       -15.4152
            237          -1.09              0       -15.4152
            238          -1.09              0       -15.4152
            239          -1.09              0       -15.4152
            240          -1.09              0       -15.4152
            241          -1.09              0       -15.4152
            242          -1.09              0       -15.4152
            243          -1.09              0       -15.4152
            244          -1.09              0       -15.4152
            245          -1.09              0       -15.4152
            246          -1.09              0       -15.4152
            247          -1.09              0       -15.4152
            248          -1.09              0       -15.4152
            249          -1.09              0       -15.4152
            250          -1.09              0       -15.4152
            251          -1.09              0       -15.4152
            252          -1.09              0       -15.4152
            253          -1.09              0       -15.4152
            254          -1.09              0       -15.4152
            255          -1.09              0       -15.4152
            256          -1.09              0       -15.4152
            257          -1.09              0       -15.4152
            258          -1.09              0       -15.4152
            259          -1.09              0       -15.4152
            260          -1.09              0       -15.4152
            261          -1.09              0       -15.4152
            262          -1.09              0       -15.4152
            263          -1.09              0       -15.4152
            264          -1.09              0       -15.4152
            265          -1.09              0       -15.4152
            266          -1.09              0       -15.4152
            267          -1.09              0       -15.4152
            268          -1.09              0       -15.4152
            269          -1.09              0       -15.4152
            270          -1.09              0       -15.4152
            271          -1.09              0       -15.4152
            272          -1.09              0       -15.4152
            273          -1.09              0       -15.4152
            274          -1.09              0       -15.4152
            275          -1.09              0       -15.4152
            276          -1.09              0       -15.4152
            277          -1.09              0       -15.4152
            278          -1.09              0       -15.4152
            279          -1.09              0       -15.4152
            280          -1.09              0       -15.4152
            281          -1.09              0       -15.4152
            282          -1.09              0       -15.4152
            283          -1.09              0       -15.4152
            284          -1.09              0       -15.4152
            285          -1.09              0       -15.4152
            286          -1.09              0       -15.4152
            287          -1.09              0       -15.4152
            288          -1.09              0       -15.4152
            289          -1.09              0       -15.4152
            290          -1.09              0       -15.4152
            291          -1.09              0       -15.4152
            292          -1.09              0       -15.4152
            293          -1.09              0       -15.4152
            294          -1.09              0       -15.4152
            295          -1.09              0       -15.4152
            296          -1.09              0       -15.4152
            297          -1.09              0       -15.4152
            298          -1.09              0       -15.4152
            299          -1.09              0       -15.4152
            300          -1.09              0       -15.4152
            301          -1.09              0       -15.4152
            302          -1.09              0       -15.4152
            303          -1.09              0       -15.4152
            304          -1.09              0       -15.4152
            305          -1.09              0       -15.4152
            306          -1.09              0       -15.4152
            307          -1.09              0       -15.4152
            308          -1.09              0       -15.4152
            309          -1.09              0       -15.4152
            310          -1.09              0       -15.4152
            311          -1.09              0       -15.4152
            312          -1.09              0       -15.4152
            313          -1.09              0       -15.4152
            314          -1.09              0       -15.4152
            315          -1.09              0       -15.4152
            316          -1.09              0       -15.4152
            317          -1.09              0       -15.4152
            318          -1.09              0       -15.4152
            319          -1.09              0       -15.4152
            320          -1.09              0       -15.4152
            321          -1.09              0       -15.4152
            322          -1.09              0       -15.4152
            323          -1.09              0       -15.4152
            324          -1.09              0       -15.4152
            325          -1.09              0       -15.4152
