seed=1725239196
seed2=244
L=10
nstep=10000
tw=1
Jz=0
eps=5
alpha=0
Sz=0
pbc=0
type=1
beta=10
tau=0.001
Jxy=1
wc=10
ss=1
              1           -0.4              0        -22.875
              2           -0.5              0       -23.2837
              3      -0.533333              0       -23.4199
              4           -0.6              0        -23.449
              5          -0.64              0       -23.4665
              6      -0.666667              0       -23.5178
              7      -0.685714              0       -23.5479
              8           -0.7              0       -23.5941
              9      -0.733333              0       -23.6164
             10          -0.76              0       -23.6343
             11      -0.763636              0       -23.6636
             12          -0.75              0        -23.702
             13      -0.707692              0       -23.7351
             14      -0.671429              0       -23.9618
             15      -0.626667              0       -24.1771
             16        -0.5875              0       -24.3655
             17      -0.564706              0       -24.5117
             18      -0.555556              0       -24.6325
             19      -0.557895              0       -24.7353
             20          -0.56              0       -24.8308
             21      -0.552381              0       -24.9285
             22      -0.545455              0       -25.0174
             23       -0.53913              0       -25.0985
             24         -0.525              0       -25.1792
             25         -0.512              0       -25.2534
             26           -0.5              0       -25.3219
             27      -0.488889              0       -25.3854
             28      -0.471429              0       -25.4499
             29      -0.455172              0       -25.5099
             30          -0.44              0        -25.566
             31      -0.425806              0       -25.6184
             32        -0.4125              0       -25.6676
             33      -0.412121              0       -25.6947
             34      -0.411765              0       -25.7203
             35      -0.417143              0       -25.7384
             36      -0.422222              0       -25.7556
             37      -0.427027              0       -25.7718
             38      -0.426316              0       -25.7924
             39      -0.430769              0       -25.8106
             40         -0.435              0       -25.8231
             41      -0.434146              0       -25.8363
             42      -0.433333              0       -25.8488
             43      -0.423256              0       -25.8801
             44      -0.413636              0       -25.9099
             45      -0.404444              0       -25.9384
             46      -0.395652              0       -25.9656
             47      -0.387234              0       -25.9917
             48      -0.379167              0       -26.0167
             49       -0.37551              0       -26.0379
             50         -0.372              0       -26.0582
             51      -0.372549              0       -26.0769
             52      -0.373077              0       -26.0948
             53      -0.377358              0        -26.109
             54      -0.381481              0       -26.1229
             55      -0.385455              0       -26.1362
             56      -0.389286              0        -26.149
             57      -0.389474              0       -26.1647
             58      -0.386207              0       -26.1822
             59      -0.386441              0       -26.1976
             60      -0.386667              0       -26.2126
             61      -0.390164              0       -26.2265
             62      -0.390323              0       -26.2401
             63      -0.393651              0        -26.251
             64      -0.396875              0       -26.2617
             65           -0.4              0       -26.2712
             66       -0.40303              0       -26.2804
             67       -0.40597              0       -26.2894
             68      -0.408824              0       -26.2992
             69      -0.408696              0       -26.3096
             70      -0.408571              0       -26.3197
             71      -0.414085              0       -26.3254
             72      -0.416667              0       -26.3315
             73      -0.419178              0       -26.3346
             74      -0.421622              0       -26.3423
             75         -0.424              0       -26.3497
             76      -0.426316              0        -26.357
             77      -0.428571              0       -26.3641
             78      -0.430769              0        -26.371
             79      -0.432911              0       -26.3778
             80         -0.435              0       -26.3853
             81      -0.434568              0       -26.3934
             82      -0.434146              0       -26.4006
             83      -0.433735              0       -26.4066
             84      -0.433333              0       -26.4124
             85      -0.432941              0       -26.4181
             86      -0.432558              0       -26.4237
             87      -0.432184              0       -26.4258
             88      -0.431818              0       -26.4278
             89      -0.431461              0       -26.4298
             90      -0.431111              0       -26.4317
             91      -0.432967              0       -26.4334
             92      -0.434783              0       -26.4362
             93      -0.436559              0        -26.439
             94      -0.438298              0       -26.4418
             95      -0.442105              0        -26.443
             96       -0.44375              0       -26.4454
             97      -0.443299              0       -26.4492
             98      -0.444898              0       -26.4525
             99      -0.444444              0       -26.4579
            100         -0.444              0       -26.4632
            101      -0.441584              0         -26.47
            102      -0.439216              0       -26.4767
            103      -0.434951              0       -26.4836
            104      -0.430769              0       -26.4904
            105      -0.426667              0       -26.4971
            106      -0.422642              0       -26.5037
            107      -0.418692              0       -26.5101
            108      -0.414815              0       -26.5164
            109      -0.411009              0       -26.5226
            110      -0.407273              0       -26.5287
            111      -0.403604              0       -26.5347
            112           -0.4              0       -26.5405
            113       -0.39823              0        -26.546
            114      -0.396491              0       -26.5513
            115      -0.394783              0       -26.5566
            116      -0.393103              0       -26.5617
            117      -0.393162              0       -26.5663
            118      -0.394915              0       -26.5685
            119      -0.396639              0       -26.5725
            120      -0.398333              0       -26.5764
            121           -0.4              0       -26.5803
            122      -0.401639              0       -26.5827
            123      -0.404878              0       -26.5838
            124      -0.408065              0       -26.5849
            125        -0.4144              0       -26.5849
            126      -0.419048              0       -26.5868
            127      -0.423622              0       -26.5878
            128      -0.428125              0       -26.5888
            129      -0.432558              0       -26.5898
            130      -0.438462              0       -26.5912
            131      -0.444275              0       -26.5926
            132          -0.45              0       -26.5939
            133      -0.454135              0       -26.5953
            134      -0.458209              0       -26.5966
            135      -0.457778              0       -26.5992
            136      -0.457353              0       -26.6017
            137      -0.458394              0       -26.6019
            138      -0.456522              0       -26.6051
            139      -0.454676              0       -26.6082
            140      -0.452857              0       -26.6113
            141      -0.451064              0       -26.6144
            142      -0.450704              0        -26.616
            143      -0.448951              0        -26.619
            144      -0.447222              0       -26.6212
            145      -0.445517              0       -26.6233
            146      -0.442466              0       -26.6272
            147      -0.439456              0       -26.6311
            148      -0.436486              0       -26.6349
            149      -0.434899              0       -26.6373
            150      -0.434667              0       -26.6395
            151      -0.434437              0       -26.6423
            152      -0.432895              0       -26.6454
            153      -0.431373              0       -26.6484
            154       -0.42987              0       -26.6514
            155      -0.428387              0       -26.6544
            156      -0.428205              0       -26.6564
            157      -0.429299              0       -26.6579
            158      -0.429114              0       -26.6599
            159      -0.430189              0       -26.6614
            160       -0.43125              0       -26.6628
            161      -0.431056              0       -26.6647
            162      -0.430864              0       -26.6666
            163      -0.430675              0       -26.6685
            164      -0.431707              0       -26.6702
            165      -0.433939              0       -26.6708
            166      -0.436145              0       -26.6714
            167      -0.439521              0        -26.672
            168      -0.441667              0       -26.6734
            169      -0.442604              0       -26.6748
            170      -0.443529              0       -26.6762
            171      -0.444444              0       -26.6772
            172      -0.444186              0       -26.6793
            173      -0.443931              0       -26.6814
            174      -0.442529              0       -26.6839
            175      -0.442286              0       -26.6862
            176      -0.442045              0       -26.6884
            177      -0.442938              0       -26.6901
            178       -0.44382              0       -26.6918
            179      -0.443575              0       -26.6938
            180      -0.444444              0       -26.6958
            181      -0.444199              0       -26.6979
            182      -0.443956              0          -26.7
            183      -0.444809              0       -26.7018
            184      -0.445652              0       -26.7036
            185      -0.447568              0       -26.7052
            186      -0.448387              0        -26.707
            187      -0.448128              0       -26.7088
            188      -0.447872              0       -26.7098
            189      -0.447619              0       -26.7107
            190      -0.447368              0       -26.7117
            191      -0.449215              0       -26.7101
            192      -0.451042              0       -26.7086
            193      -0.451813              0       -26.7081
            194      -0.450515              0         -26.71
            195      -0.448205              0       -26.7125
            196      -0.445918              0       -26.7149
            197      -0.443655              0       -26.7174
            198      -0.441414              0       -26.7198
            199      -0.439196              0       -26.7221
            200         -0.437              0       -26.7245
            201      -0.434826              0       -26.7268
            202      -0.432673              0       -26.7291
            203      -0.430542              0       -26.7314
            204      -0.428431              0       -26.7336
            205      -0.426341              0       -26.7359
            206      -0.425243              0       -26.7376
            207      -0.425121              0       -26.7386
            208         -0.425              0       -26.7396
            209      -0.423923              0       -26.7412
            210      -0.421905              0       -26.7434
            211      -0.419905              0       -26.7455
            212      -0.417925              0       -26.7476
            213      -0.415962              0       -26.7497
            214      -0.414019              0       -26.7517
            215      -0.412093              0       -26.7538
            216      -0.411111              0       -26.7557
            217      -0.411111              0       -26.7557
            218      -0.411111              0       -26.7557
            219      -0.411111              0       -26.7557
            220      -0.411111              0       -26.7557
            221      -0.411111              0       -26.7557
            222      -0.411111              0       -26.7557
            223      -0.411111              0       -26.7557
            224      -0.411111              0       -26.7557
            225      -0.411111              0       -26.7557
            226      -0.411111              0       -26.7557
            227      -0.411111              0       -26.7557
            228      -0.411111              0       -26.7557
            229      -0.411111              0       -26.7557
            230      -0.411111              0       -26.7557
            231      -0.411111              0       -26.7557
            232      -0.411111              0       -26.7557
            233      -0.411111              0       -26.7557
            234      -0.411111              0       -26.7557
            235      -0.411111              0       -26.7557
            236      -0.411111              0       -26.7557
            237      -0.411111              0       -26.7557
            238      -0.411111              0       -26.7557
            239      -0.411111              0       -26.7557
            240      -0.411111              0       -26.7557
            241      -0.411111              0       -26.7557
            242      -0.411111              0       -26.7557
            243      -0.411111              0       -26.7557
            244      -0.411111              0       -26.7557
            245      -0.411111              0       -26.7557
            246      -0.411111              0       -26.7557
            247      -0.411111              0       -26.7557
            248      -0.411111              0       -26.7557
            249      -0.411111              0       -26.7557
            250      -0.411111              0       -26.7557
            251      -0.411111              0       -26.7557
            252      -0.411111              0       -26.7557
            253      -0.411111              0       -26.7557
            254      -0.411111              0       -26.7557
            255      -0.411111              0       -26.7557
            256      -0.411111              0       -26.7557
            257      -0.411111              0       -26.7557
            258      -0.411111              0       -26.7557
            259      -0.411111              0       -26.7557
            260      -0.411111              0       -26.7557
            261      -0.411111              0       -26.7557
            262      -0.411111              0       -26.7557
            263      -0.411111              0       -26.7557
            264      -0.411111              0       -26.7557
            265      -0.411111              0       -26.7557
            266      -0.411111              0       -26.7557
            267      -0.411111              0       -26.7557
            268      -0.411111              0       -26.7557
            269      -0.411111              0       -26.7557
            270      -0.411111              0       -26.7557
            271      -0.411111              0       -26.7557
            272      -0.411111              0       -26.7557
            273      -0.411111              0       -26.7557
            274      -0.411111              0       -26.7557
            275      -0.411111              0       -26.7557
            276      -0.411111              0       -26.7557
            277      -0.411111              0       -26.7557
            278      -0.411111              0       -26.7557
            279      -0.411111              0       -26.7557
            280      -0.411111              0       -26.7557
            281      -0.411111              0       -26.7557
            282      -0.411111              0       -26.7557
            283      -0.411111              0       -26.7557
            284      -0.411111              0       -26.7557
            285      -0.411111              0       -26.7557
            286      -0.411111              0       -26.7557
            287      -0.411111              0       -26.7557
            288      -0.411111              0       -26.7557
            289      -0.411111              0       -26.7557
            290      -0.411111              0       -26.7557
            291      -0.411111              0       -26.7557
            292      -0.411111              0       -26.7557
            293      -0.411111              0       -26.7557
            294      -0.411111              0       -26.7557
            295      -0.411111              0       -26.7557
            296      -0.411111              0       -26.7557
            297      -0.411111              0       -26.7557
            298      -0.411111              0       -26.7557
            299      -0.411111              0       -26.7557
            300      -0.411111              0       -26.7557
            301      -0.411111              0       -26.7557
            302      -0.411111              0       -26.7557
            303      -0.411111              0       -26.7557
            304      -0.411111              0       -26.7557
            305      -0.411111              0       -26.7557
            306      -0.411111              0       -26.7557
            307      -0.411111              0       -26.7557
            308      -0.411111              0       -26.7557
            309      -0.411111              0       -26.7557
            310      -0.411111              0       -26.7557
            311      -0.411111              0       -26.7557
            312      -0.411111              0       -26.7557
            313      -0.411111              0       -26.7557
            314      -0.411111              0       -26.7557
            315      -0.411111              0       -26.7557
            316      -0.411111              0       -26.7557
            317      -0.411111              0       -26.7557
            318      -0.411111              0       -26.7557
            319      -0.411111              0       -26.7557
            320      -0.411111              0       -26.7557
            321      -0.411111              0       -26.7557
            322      -0.411111              0       -26.7557
            323      -0.411111              0       -26.7557
            324      -0.411111              0       -26.7557
            325      -0.411111              0       -26.7557
