seed=1725278593
seed2=373
L=10
nstep=10000
tw=1
Jz=0
eps=5
alpha=0
Sz=0
pbc=0
type=1
beta=10
tau=0.001
Jxy=1
wc=10
ss=1
              1           -0.8              0       -5.27128
              2             -1              0       -5.68842
              3       -1.26667              0       -6.33119
              4           -1.4              0       -6.86881
              5          -1.44              0       -7.26158
              6       -1.53333              0       -7.62207
              7       -1.65714              0       -8.25079
              8          -1.75              0       -8.71882
              9       -1.82222              0       -9.08284
             10          -1.94              0       -9.42368
             11       -2.03636              0       -9.71281
             12       -2.11667              0       -9.99904
             13       -2.18462              0       -10.2565
             14       -2.21429              0       -10.5861
             15       -2.25333              0       -10.8711
             16        -2.2875              0       -11.1619
             17       -2.30588              0        -11.418
             18       -2.33333              0       -11.6465
             19       -2.32632              0       -11.8559
             20          -2.32              0       -12.0722
             21       -2.33333              0       -12.3104
             22       -2.32727              0       -12.5249
             23       -2.33043              0       -12.7191
             24         -2.325              0       -12.8971
             25         -2.325              0       -12.8971
             26         -2.325              0       -12.8971
             27         -2.325              0       -12.8971
             28         -2.325              0       -12.8971
             29         -2.325              0       -12.8971
             30         -2.325              0       -12.8971
             31         -2.325              0       -12.8971
             32         -2.325              0       -12.8971
             33         -2.325              0       -12.8971
             34         -2.325              0       -12.8971
             35         -2.325              0       -12.8971
             36         -2.325              0       -12.8971
             37         -2.288              0       -13.1197
             38       -2.25385              0       -13.3257
             39       -2.22222              0       -13.5162
             40           -2.2              0       -13.6873
             41       -2.16552              0       -13.8461
             42       -2.13333              0       -13.9943
             43       -2.10323              0       -14.1389
             44         -2.075              0       -14.2745
             45       -2.04848              0       -14.4019
             46       -2.02353              0       -14.5313
             47       -2.00571              0       -14.6506
             48       -1.98889              0       -14.7632
             49       -1.97297              0       -14.8697
             50       -1.96316              0       -14.9707
             51       -1.94872              0       -15.0647
             52         -1.935              0       -15.1595
             53       -1.92195              0       -15.2497
             54       -1.91429              0       -15.3374
             55       -1.90233              0       -15.4205
             56       -1.88182              0       -15.4985
             57       -1.86222              0        -15.573
             58       -1.84348              0       -15.6443
             59       -1.82979              0       -15.7129
             60       -1.81667              0       -15.7787
             61       -1.80816              0       -15.8408
             62         -1.796              0       -15.9009
             63       -1.78431              0       -15.9585
             64       -1.76923              0       -16.0139
             65       -1.76604              0       -16.0651
             66       -1.76296              0       -16.1149
             67       -1.77091              0       -16.1569
             68       -1.77143              0       -16.2018
             69       -1.76842              0       -16.2438
             70       -1.76552              0       -16.2834
             71       -1.76271              0        -16.321
             72          -1.76              0       -16.3575
             73       -1.76066              0       -16.3932
             74       -1.76129              0       -16.4298
             75       -1.76508              0       -16.4645
             76       -1.76875              0       -16.4976
             77       -1.76923              0       -16.5288
             78        -1.7697              0       -16.5613
             79       -1.77015              0       -16.5929
             80       -1.76765              0       -16.6247
             81       -1.76232              0       -16.6568
             82       -1.75714              0       -16.6897
             83       -1.75211              0       -16.7198
             84       -1.74722              0       -16.7491
             85       -1.74247              0       -16.7775
             86       -1.73784              0       -16.8038
             87         -1.736              0       -16.8288
             88       -1.73421              0       -16.8528
             89       -1.72987              0       -16.8746
             90       -1.72308              0        -16.906
             91       -1.71646              0       -16.9366
             92          -1.71              0       -16.9663
             93       -1.70617              0       -16.9962
             94       -1.70488              0       -17.0259
             95        -1.7012              0       -17.0594
             96       -1.69286              0        -17.092
             97          -1.68              0       -17.1304
             98       -1.66744              0       -17.1679
             99       -1.65287              0       -17.2036
            100       -1.63636              0       -17.2404
            101       -1.62022              0       -17.2764
            102       -1.60444              0       -17.3116
            103       -1.58901              0        -17.346
            104       -1.57609              0       -17.3791
            105       -1.56129              0       -17.4125
            106       -1.54681              0       -17.4452
            107       -1.53474              0       -17.4772
            108       -1.52292              0        -17.509
            109       -1.51134              0       -17.5401
            110       -1.49796              0       -17.5706
            111       -1.48485              0       -17.6006
            112         -1.474              0       -17.6293
            113       -1.46337              0       -17.6575
            114       -1.45294              0       -17.6852
            115       -1.44272              0       -17.7115
            116       -1.43654              0       -17.7324
            117       -1.43048              0       -17.7536
            118       -1.42453              0        -17.772
            119       -1.42056              0       -17.7886
            120       -1.41481              0       -17.8121
            121       -1.40917              0       -17.8351
            122       -1.40364              0       -17.8578
            123           -1.4              0       -17.8793
            124       -1.39643              0       -17.9004
            125       -1.39292              0       -17.9225
            126       -1.38947              0       -17.9443
            127       -1.38435              0        -17.966
            128       -1.37931              0       -17.9873
            129       -1.37265              0       -18.0067
            130        -1.3661              0       -18.0258
            131       -1.35966              0       -18.0445
            132         -1.355              0       -18.0636
            133       -1.35041              0        -18.083
            134        -1.3459              0        -18.102
            135       -1.34146              0       -18.1208
            136        -1.3371              0       -18.1386
            137        -1.3312              0       -18.1572
            138        -1.3254              0       -18.1755
            139       -1.31969              0       -18.1924
            140       -1.31406              0       -18.2104
            141       -1.30698              0       -18.2277
            142           -1.3              0       -18.2448
            143       -1.29466              0       -18.2619
            144       -1.28939              0       -18.2787
            145       -1.28271              0       -18.2954
            146       -1.27612              0       -18.3118
            147       -1.26963              0       -18.3279
            148       -1.26471              0       -18.3421
            149       -1.25985              0       -18.3561
            150       -1.25652              0       -18.3698
            151       -1.25468              0       -18.3839
            152       -1.25143              0       -18.3981
            153       -1.24823              0       -18.4121
            154       -1.24366              0       -18.4264
            155       -1.23916              0       -18.4401
            156       -1.23611              0       -18.4535
            157       -1.23172              0        -18.466
            158       -1.22877              0       -18.4779
            159       -1.22449              0       -18.4893
            160       -1.21892              0       -18.5011
            161       -1.21342              0       -18.5134
            162         -1.208              0       -18.5248
            163       -1.20265              0       -18.5369
            164       -1.19605              0       -18.5498
            165       -1.18954              0       -18.5625
            166       -1.18312              0        -18.575
            167       -1.17677              0       -18.5875
            168       -1.17051              0       -18.5998
            169       -1.16433              0        -18.612
            170       -1.15823              0        -18.624
            171        -1.1522              0       -18.6359
            172       -1.14625              0       -18.6476
            173       -1.14037              0       -18.6592
            174       -1.13457              0       -18.6706
            175       -1.12883              0       -18.6819
            176       -1.12317              0        -18.693
            177       -1.11758              0        -18.704
            178       -1.11205              0       -18.7149
            179       -1.10778              0        -18.725
            180       -1.10357              0       -18.7349
            181       -1.09941              0       -18.7447
            182       -1.09647              0        -18.754
            183       -1.09357              0       -18.7633
            184        -1.0907              0       -18.7725
            185       -1.08902              0       -18.7807
            186       -1.08506              0       -18.7896
            187       -1.08114              0       -18.7978
            188       -1.07841              0       -18.8045
            189       -1.07684              0       -18.8109
            190       -1.07528              0       -18.8176
            191       -1.07151              0       -18.8254
            192       -1.06778              0       -18.8331
            193       -1.06409              0       -18.8407
            194       -1.05934              0       -18.8491
            195       -1.05464              0       -18.8582
            196       -1.05109              0       -18.8668
            197       -1.04757              0       -18.8753
            198       -1.04516              0       -18.8834
            199       -1.04516              0       -18.8834
            200       -1.04516              0       -18.8834
            201       -1.04516              0       -18.8834
            202       -1.04516              0       -18.8834
            203       -1.04516              0       -18.8834
            204       -1.04516              0       -18.8834
            205       -1.04516              0       -18.8834
            206       -1.04516              0       -18.8834
            207       -1.04516              0       -18.8834
            208       -1.04516              0       -18.8834
            209       -1.04516              0       -18.8834
            210       -1.04516              0       -18.8834
            211       -1.04516              0       -18.8834
            212       -1.04516              0       -18.8834
            213       -1.04516              0       -18.8834
            214       -1.04516              0       -18.8834
            215       -1.04516              0       -18.8834
            216       -1.04516              0       -18.8834
            217       -1.04516              0       -18.8834
            218       -1.04516              0       -18.8834
            219       -1.04516              0       -18.8834
            220       -1.04516              0       -18.8834
            221       -1.04516              0       -18.8834
            222       -1.04516              0       -18.8834
            223       -1.04516              0       -18.8834
            224       -1.04516              0       -18.8834
            225       -1.04516              0       -18.8834
            226       -1.04516              0       -18.8834
            227       -1.04516              0       -18.8834
            228       -1.04516              0       -18.8834
            229       -1.04516              0       -18.8834
            230       -1.04516              0       -18.8834
            231       -1.04516              0       -18.8834
            232       -1.04516              0       -18.8834
            233       -1.04516              0       -18.8834
            234       -1.04516              0       -18.8834
            235       -1.04516              0       -18.8834
            236       -1.04516              0       -18.8834
            237       -1.04516              0       -18.8834
            238       -1.04516              0       -18.8834
            239       -1.04516              0       -18.8834
            240       -1.04516              0       -18.8834
            241       -1.04516              0       -18.8834
            242       -1.04516              0       -18.8834
            243       -1.04516              0       -18.8834
            244       -1.04516              0       -18.8834
            245       -1.04516              0       -18.8834
            246       -1.04516              0       -18.8834
            247       -1.04516              0       -18.8834
            248       -1.04516              0       -18.8834
            249       -1.04516              0       -18.8834
            250       -1.04516              0       -18.8834
            251       -1.04516              0       -18.8834
            252       -1.04516              0       -18.8834
            253       -1.04516              0       -18.8834
            254       -1.04516              0       -18.8834
            255       -1.04516              0       -18.8834
            256       -1.04516              0       -18.8834
            257       -1.04516              0       -18.8834
            258       -1.04516              0       -18.8834
            259       -1.04516              0       -18.8834
            260       -1.04516              0       -18.8834
            261       -1.04516              0       -18.8834
            262       -1.04516              0       -18.8834
            263       -1.04516              0       -18.8834
            264       -1.04516              0       -18.8834
            265       -1.04516              0       -18.8834
            266       -1.04516              0       -18.8834
            267       -1.04516              0       -18.8834
            268       -1.04516              0       -18.8834
            269       -1.04516              0       -18.8834
            270       -1.04516              0       -18.8834
            271       -1.04516              0       -18.8834
            272       -1.04516              0       -18.8834
            273       -1.04516              0       -18.8834
            274       -1.04516              0       -18.8834
            275       -1.04516              0       -18.8834
            276       -1.04516              0       -18.8834
            277       -1.04516              0       -18.8834
            278       -1.04516              0       -18.8834
            279       -1.04516              0       -18.8834
            280       -1.04516              0       -18.8834
            281       -1.04516              0       -18.8834
            282       -1.04516              0       -18.8834
            283       -1.04516              0       -18.8834
            284       -1.04516              0       -18.8834
            285       -1.04516              0       -18.8834
            286       -1.04516              0       -18.8834
            287       -1.04516              0       -18.8834
            288       -1.04516              0       -18.8834
            289       -1.04516              0       -18.8834
            290       -1.04516              0       -18.8834
            291       -1.04516              0       -18.8834
            292       -1.04516              0       -18.8834
            293       -1.04516              0       -18.8834
            294       -1.04516              0       -18.8834
            295       -1.04516              0       -18.8834
            296       -1.04516              0       -18.8834
            297       -1.04516              0       -18.8834
            298       -1.04516              0       -18.8834
            299       -1.04516              0       -18.8834
            300       -1.04516              0       -18.8834
            301       -1.04516              0       -18.8834
            302       -1.04516              0       -18.8834
            303       -1.04516              0       -18.8834
            304       -1.04516              0       -18.8834
            305       -1.04516              0       -18.8834
            306       -1.04516              0       -18.8834
            307       -1.04516              0       -18.8834
            308       -1.04516              0       -18.8834
            309       -1.04516              0       -18.8834
            310       -1.04516              0       -18.8834
            311       -1.04516              0       -18.8834
            312       -1.04516              0       -18.8834
            313       -1.04516              0       -18.8834
            314       -1.04516              0       -18.8834
            315       -1.04516              0       -18.8834
            316       -1.04516              0       -18.8834
            317       -1.04516              0       -18.8834
            318       -1.04516              0       -18.8834
            319       -1.04516              0       -18.8834
            320       -1.04516              0       -18.8834
            321       -1.04516              0       -18.8834
            322       -1.04516              0       -18.8834
            323       -1.04516              0       -18.8834
            324       -1.04516              0       -18.8834
            325       -1.04516              0       -18.8834
