seed=1725259037
seed2=6
L=10
nstep=10000
tw=1
Jz=0
eps=5
alpha=0
Sz=0
pbc=0
type=1
beta=10
tau=0.001
Jxy=1
wc=10
ss=1
              1           -0.6              0       -15.4698
              2           -0.7              0       -15.6868
              3      -0.733333              0        -16.046
              4          -0.75              0       -16.4278
              5           -0.8              0       -16.7393
              6      -0.833333              0       -17.0219
              7      -0.857143              0        -17.213
              8         -0.875              0       -17.5529
              9      -0.911111              0       -17.8144
             10          -0.94              0       -18.0136
             11      -0.981818              0       -18.2169
             12       -1.01667              0       -18.4058
             13       -1.06154              0       -18.5643
             14       -1.11429              0       -18.7341
             15       -1.17333              0       -18.8758
             16         -1.225              0       -19.0068
             17       -1.25882              0       -19.1238
             18       -1.27778              0       -19.2648
             19       -1.27368              0       -19.3917
             20          -1.27              0       -19.5059
             21       -1.26667              0       -19.6046
             22       -1.27273              0       -19.6979
             23       -1.26087              0       -19.8193
             24       -1.25833              0        -19.925
             25         -1.256              0       -20.0242
             26       -1.24615              0       -20.1414
             27       -1.25185              0       -20.2433
             28       -1.26429              0       -20.3625
             29       -1.26207              0       -20.5219
             30       -1.26667              0       -20.6703
             31       -1.25161              0       -20.8189
             32       -1.23125              0        -20.991
             33       -1.21212              0       -21.1512
             34       -1.18824              0       -21.3021
             35       -1.16571              0       -21.4458
             36       -1.14444              0       -21.5822
             37       -1.12973              0       -21.7109
             38       -1.11579              0       -21.8329
             39       -1.10256              0       -21.9489
             40         -1.095              0       -22.0557
             41       -1.08293              0       -22.1569
             42       -1.07619              0       -22.2519
             43       -1.07442              0        -22.344
             44       -1.07273              0       -22.4324
             45       -1.07556              0       -22.5168
             46       -1.07391              0       -22.5969
             47        -1.0766              0       -22.6652
             48       -1.07917              0       -22.7306
             49       -1.08163              0       -22.7936
             50         -1.084              0       -22.8539
             51       -1.08235              0         -22.92
             52       -1.08462              0       -22.9824
             53       -1.08302              0       -23.0426
             54       -1.08148              0       -23.1018
             55       -1.08364              0       -23.1576
             56       -1.08571              0       -23.2101
             57        -1.0807              0       -23.2621
             58       -1.07931              0       -23.3125
             59       -1.07797              0        -23.361
             60       -1.07667              0       -23.4066
             61       -1.07869              0       -23.4506
             62       -1.08065              0       -23.4909
             63       -1.07937              0       -23.5335
             64         -1.075              0       -23.5749
             65       -1.06769              0       -23.6144
             66       -1.06364              0       -23.6528
             67       -1.06269              0       -23.6904
             68       -1.05882              0        -23.729
             69       -1.05507              0       -23.7665
             70       -1.05143              0       -23.8029
             71       -1.04789              0       -23.8384
             72       -1.04444              0       -23.8729
             73       -1.03562              0       -23.9066
             74       -1.02432              0       -23.9396
             75       -1.01333              0       -23.9721
             76       -1.00263              0       -24.0037
             77      -0.992208              0       -24.0345
             78      -0.984615              0       -24.0641
             79      -0.974684              0       -24.0931
             80        -0.9625              0       -24.1216
             81      -0.953086              0       -24.1494
             82      -0.943902              0       -24.1757
             83       -0.93494              0       -24.2014
             84      -0.928571              0       -24.2257
             85      -0.927059              0       -24.2441
             86      -0.927907              0       -24.2621
             87      -0.928736              0       -24.2797
             88      -0.927273              0       -24.2976
             89      -0.923596              0       -24.3194
             90          -0.92              0       -24.3394
             91      -0.918681              0       -24.3591
             92      -0.919565              0       -24.3779
             93       -0.92043              0       -24.3962
             94      -0.923404              0       -24.4136
             95          -0.92              0       -24.4328
             96       -0.91875              0       -24.4514
             97      -0.913402              0       -24.4711
             98      -0.906122              0       -24.4905
             99       -0.89899              0       -24.5094
            100         -0.894              0       -24.5268
            101      -0.889109              0       -24.5433
            102      -0.884314              0       -24.5609
            103      -0.879612              0       -24.5781
            104         -0.875              0        -24.595
            105      -0.870476              0       -24.6115
            106      -0.867925              0       -24.6276
            107      -0.865421              0       -24.6435
            108      -0.864815              0        -24.659
            109      -0.866055              0       -24.6732
            110      -0.867273              0        -24.687
            111      -0.868468              0       -24.7008
            112      -0.867857              0       -24.7145
            113      -0.867257              0       -24.7281
            114      -0.866667              0       -24.7419
            115      -0.867826              0       -24.7551
            116       -0.87069              0        -24.768
            117      -0.871795              0       -24.7813
            118      -0.872881              0        -24.794
            119      -0.872269              0       -24.8064
            120          -0.87              0       -24.8188
            121      -0.869421              0       -24.8311
            122      -0.867213              0       -24.8432
            123      -0.863415              0        -24.855
            124       -0.86129              0       -24.8664
            125        -0.8624              0       -24.8771
            126      -0.861905              0       -24.8886
            127      -0.864567              0       -24.8998
            128      -0.864063              0       -24.9107
            129      -0.863566              0       -24.9212
            130      -0.864615              0       -24.9316
            131      -0.864122              0       -24.9421
            132      -0.862121              0       -24.9526
            133       -0.86015              0       -24.9627
            134      -0.858209              0       -24.9727
            135      -0.856296              0       -24.9826
            136      -0.854412              0       -24.9924
            137      -0.852555              0       -25.0021
            138      -0.850725              0       -25.0117
            139      -0.848921              0       -25.0211
            140      -0.847143              0       -25.0297
            141      -0.843972              0       -25.0386
            142      -0.843972              0       -25.0386
            143      -0.843972              0       -25.0386
            144      -0.843972              0       -25.0386
            145      -0.843972              0       -25.0386
            146      -0.843972              0       -25.0386
            147      -0.843972              0       -25.0386
            148      -0.843972              0       -25.0386
            149      -0.843972              0       -25.0386
            150      -0.843972              0       -25.0386
            151      -0.843972              0       -25.0386
            152      -0.843972              0       -25.0386
            153      -0.843972              0       -25.0386
            154      -0.843972              0       -25.0386
            155      -0.843972              0       -25.0386
            156      -0.843972              0       -25.0386
            157      -0.843972              0       -25.0386
            158      -0.843972              0       -25.0386
            159      -0.843972              0       -25.0386
            160      -0.843972              0       -25.0386
            161      -0.843972              0       -25.0386
            162      -0.843972              0       -25.0386
            163      -0.843972              0       -25.0386
            164      -0.843972              0       -25.0386
            165      -0.843972              0       -25.0386
            166      -0.843972              0       -25.0386
            167      -0.843972              0       -25.0386
            168      -0.843972              0       -25.0386
            169      -0.843972              0       -25.0386
            170      -0.843972              0       -25.0386
            171      -0.843972              0       -25.0386
            172      -0.843972              0       -25.0386
            173      -0.843972              0       -25.0386
            174      -0.843972              0       -25.0386
            175      -0.843972              0       -25.0386
            176      -0.843972              0       -25.0386
            177      -0.843972              0       -25.0386
            178      -0.843972              0       -25.0386
            179      -0.843972              0       -25.0386
            180      -0.843972              0       -25.0386
            181      -0.843972              0       -25.0386
            182      -0.843972              0       -25.0386
            183      -0.843972              0       -25.0386
            184      -0.843972              0       -25.0386
            185      -0.843972              0       -25.0386
            186      -0.843972              0       -25.0386
            187      -0.843972              0       -25.0386
            188      -0.843972              0       -25.0386
            189      -0.843972              0       -25.0386
            190      -0.843972              0       -25.0386
            191      -0.843972              0       -25.0386
            192      -0.843972              0       -25.0386
            193      -0.843972              0       -25.0386
            194      -0.843972              0       -25.0386
            195      -0.843972              0       -25.0386
            196      -0.843972              0       -25.0386
            197      -0.843972              0       -25.0386
            198      -0.843972              0       -25.0386
            199      -0.843972              0       -25.0386
            200      -0.843972              0       -25.0386
            201      -0.843972              0       -25.0386
            202      -0.843972              0       -25.0386
            203      -0.843972              0       -25.0386
            204      -0.843972              0       -25.0386
            205      -0.843972              0       -25.0386
            206      -0.843972              0       -25.0386
            207      -0.843972              0       -25.0386
            208      -0.843972              0       -25.0386
            209      -0.843972              0       -25.0386
            210      -0.843972              0       -25.0386
            211      -0.843972              0       -25.0386
            212      -0.843972              0       -25.0386
            213      -0.843972              0       -25.0386
            214      -0.843972              0       -25.0386
            215      -0.843972              0       -25.0386
            216      -0.843972              0       -25.0386
            217      -0.843972              0       -25.0386
            218      -0.843972              0       -25.0386
            219      -0.843972              0       -25.0386
            220      -0.843972              0       -25.0386
            221      -0.843972              0       -25.0386
            222      -0.843972              0       -25.0386
            223      -0.843972              0       -25.0386
            224      -0.843972              0       -25.0386
            225      -0.843972              0       -25.0386
            226      -0.843972              0       -25.0386
            227      -0.843972              0       -25.0386
            228      -0.843972              0       -25.0386
            229      -0.843972              0       -25.0386
            230      -0.843972              0       -25.0386
            231      -0.843972              0       -25.0386
            232      -0.843972              0       -25.0386
            233      -0.843972              0       -25.0386
            234      -0.843972              0       -25.0386
            235      -0.843972              0       -25.0386
            236      -0.843972              0       -25.0386
            237      -0.843972              0       -25.0386
            238      -0.843972              0       -25.0386
            239      -0.843972              0       -25.0386
            240      -0.843972              0       -25.0386
            241      -0.843972              0       -25.0386
            242      -0.843972              0       -25.0386
            243      -0.843972              0       -25.0386
            244      -0.843972              0       -25.0386
            245      -0.843972              0       -25.0386
            246      -0.843972              0       -25.0386
            247      -0.843972              0       -25.0386
            248      -0.843972              0       -25.0386
            249      -0.843972              0       -25.0386
            250      -0.843972              0       -25.0386
            251      -0.843972              0       -25.0386
            252      -0.843972              0       -25.0386
            253      -0.843972              0       -25.0386
            254      -0.843972              0       -25.0386
            255      -0.843972              0       -25.0386
            256      -0.843972              0       -25.0386
            257      -0.843972              0       -25.0386
            258      -0.843972              0       -25.0386
            259      -0.843972              0       -25.0386
            260      -0.843972              0       -25.0386
            261      -0.843972              0       -25.0386
            262      -0.843972              0       -25.0386
            263      -0.843972              0       -25.0386
            264      -0.843972              0       -25.0386
            265      -0.843972              0       -25.0386
            266      -0.843972              0       -25.0386
            267      -0.843972              0       -25.0386
            268      -0.843972              0       -25.0386
            269      -0.843972              0       -25.0386
            270      -0.843972              0       -25.0386
            271      -0.843972              0       -25.0386
            272      -0.843972              0       -25.0386
            273      -0.843972              0       -25.0386
            274      -0.843972              0       -25.0386
            275      -0.843972              0       -25.0386
            276      -0.843972              0       -25.0386
            277      -0.843972              0       -25.0386
            278      -0.843972              0       -25.0386
            279      -0.843972              0       -25.0386
            280      -0.843972              0       -25.0386
            281      -0.843972              0       -25.0386
            282      -0.843972              0       -25.0386
            283      -0.843972              0       -25.0386
            284      -0.843972              0       -25.0386
            285      -0.843972              0       -25.0386
            286      -0.843972              0       -25.0386
            287      -0.843972              0       -25.0386
            288      -0.843972              0       -25.0386
            289      -0.843972              0       -25.0386
            290      -0.843972              0       -25.0386
            291      -0.843972              0       -25.0386
            292      -0.843972              0       -25.0386
            293      -0.843972              0       -25.0386
            294      -0.843972              0       -25.0386
            295      -0.843972              0       -25.0386
            296      -0.843972              0       -25.0386
            297      -0.843972              0       -25.0386
            298      -0.843972              0       -25.0386
            299      -0.843972              0       -25.0386
            300      -0.843972              0       -25.0386
            301      -0.843972              0       -25.0386
            302      -0.843972              0       -25.0386
            303      -0.843972              0       -25.0386
            304      -0.843972              0       -25.0386
            305      -0.843972              0       -25.0386
            306      -0.843972              0       -25.0386
            307      -0.843972              0       -25.0386
            308      -0.843972              0       -25.0386
            309      -0.843972              0       -25.0386
            310      -0.843972              0       -25.0386
            311      -0.843972              0       -25.0386
            312      -0.843972              0       -25.0386
            313      -0.843972              0       -25.0386
            314      -0.843972              0       -25.0386
            315      -0.843972              0       -25.0386
            316      -0.843972              0       -25.0386
            317      -0.843972              0       -25.0386
            318      -0.843972              0       -25.0386
            319      -0.843972              0       -25.0386
            320      -0.843972              0       -25.0386
            321      -0.843972              0       -25.0386
            322      -0.843972              0       -25.0386
            323      -0.843972              0       -25.0386
            324      -0.843972              0       -25.0386
            325      -0.843972              0       -25.0386
