seed=1725239196
seed2=162
L=10
nstep=10000
tw=1
Jz=0
eps=5
alpha=0
Sz=0
pbc=0
type=1
beta=10
tau=0.001
Jxy=1
wc=10
ss=1
              1           -0.2              0       -20.0355
              2           -0.2              0       -20.0181
              3           -0.2              0       -20.0123
              4           -0.2              0       -20.0094
              5          -0.16              0       -20.0329
              6      -0.233333              0       -20.0153
              7      -0.314286              0       -20.0201
              8         -0.375              0       -20.0237
              9      -0.422222              0       -20.0515
             10          -0.48              0         -20.07
             11      -0.527273              0       -20.0778
             12      -0.583333              0       -20.0826
             13      -0.646154              0       -20.0932
             14      -0.714286              0       -20.0924
             15          -0.76              0        -20.101
             16        -0.8125              0       -20.1035
             17      -0.835294              0       -20.1156
             18      -0.877778              0        -20.119
             19      -0.894737              0       -20.1395
             20           -0.9              0       -20.1591
             21      -0.904762              0        -20.174
             22      -0.909091              0       -20.1864
             23      -0.921739              0       -20.2008
             24      -0.933333              0       -20.2105
             25         -0.944              0       -20.2194
             26      -0.946154              0       -20.2306
             27      -0.948148              0       -20.2403
             28          -0.95              0       -20.2474
             29      -0.951724              0        -20.254
             30      -0.953333              0       -20.2584
             31      -0.954839              0       -20.2635
             32       -0.95625              0       -20.2659
             33      -0.963636              0       -20.2676
             34      -0.958824              0        -20.272
             35      -0.948571              0       -20.2765
             36      -0.944444              0        -20.272
             37      -0.945946              0       -20.2738
             38      -0.942105              0       -20.2795
             39      -0.938462              0        -20.285
             40          -0.93              0       -20.2927
             41      -0.917073              0       -20.3027
             42           -0.9              0       -20.3132
             43      -0.883721              0       -20.3233
             44      -0.863636              0       -20.3329
             45      -0.844444              0       -20.3421
             46      -0.834783              0       -20.3486
             47      -0.829787              0       -20.3502
             48         -0.825              0       -20.3505
             49       -0.82449              0       -20.3461
             50         -0.824              0       -20.3419
             51      -0.819608              0       -20.3384
             52      -0.815385              0       -20.3336
             53      -0.807547              0       -20.3322
             54      -0.803704              0       -20.3304
             55           -0.8              0       -20.3287
             56           -0.8              0       -20.3266
             57      -0.810526              0       -20.3246
             58      -0.813793              0       -20.3208
             59      -0.810169              0       -20.3212
             60      -0.806667              0       -20.3216
             61      -0.803279              0        -20.322
             62      -0.796774              0       -20.3252
             63      -0.790476              0       -20.3237
             64      -0.784375              0       -20.3222
             65      -0.778462              0       -20.3226
             66      -0.772727              0       -20.3229
             67      -0.767164              0       -20.3266
             68      -0.761765              0       -20.3302
             69      -0.750725              0       -20.3362
             70          -0.74              0        -20.342
             71      -0.735211              0       -20.3467
             72      -0.733333              0       -20.3512
             73      -0.734247              0       -20.3522
             74      -0.735135              0       -20.3551
             75         -0.736              0       -20.3556
             76      -0.739474              0       -20.3575
             77       -0.74026              0       -20.3593
             78      -0.741026              0       -20.3613
             79      -0.736709              0       -20.3615
             80        -0.7325              0       -20.3635
             81      -0.728395              0       -20.3613
             82      -0.726829              0       -20.3583
             83      -0.725301              0       -20.3554
             84       -0.72381              0       -20.3524
             85      -0.727059              0       -20.3484
             86      -0.730233              0       -20.3444
             87      -0.731034              0        -20.346
             88      -0.729545              0       -20.3482
             89      -0.730337              0       -20.3502
             90      -0.733333              0       -20.3518
             91      -0.734066              0       -20.3536
             92      -0.732609              0       -20.3552
             93      -0.733333              0       -20.3557
             94      -0.734043              0        -20.357
             95      -0.734737              0       -20.3583
             96        -0.7375              0       -20.3597
             97      -0.738144              0       -20.3613
             98      -0.736735              0       -20.3628
             99      -0.733333              0       -20.3649
            100         -0.732              0       -20.3667
            101      -0.730693              0       -20.3684
            102      -0.729412              0       -20.3691
            103      -0.730097              0        -20.371
            104      -0.726923              0       -20.3729
            105      -0.725714              0       -20.3732
            106      -0.720755              0       -20.3757
            107      -0.719626              0       -20.3777
            108      -0.722222              0       -20.3769
            109      -0.724771              0       -20.3747
            110      -0.727273              0       -20.3725
            111      -0.731532              0       -20.3708
            112      -0.735714              0       -20.3703
            113      -0.738053              0       -20.3691
            114      -0.742105              0       -20.3687
            115      -0.742609              0       -20.3688
            116      -0.744828              0       -20.3689
            117      -0.747009              0       -20.3695
            118      -0.750847              0       -20.3699
            119      -0.756303              0       -20.3692
            120      -0.763333              0       -20.3675
            121      -0.766942              0       -20.3656
            122      -0.772131              0       -20.3646
            123       -0.77561              0        -20.363
            124      -0.777419              0       -20.3627
            125        -0.7808              0        -20.362
            126       -0.78254              0       -20.3627
            127      -0.785827              0       -20.3631
            128      -0.785937              0       -20.3635
            129      -0.786047              0       -20.3627
            130      -0.786154              0       -20.3609
            131       -0.78626              0         -20.36
            132      -0.784848              0       -20.3584
            133      -0.783459              0       -20.3563
            134      -0.780597              0       -20.3559
            135      -0.776296              0       -20.3567
            136      -0.772059              0       -20.3582
            137      -0.769343              0       -20.3596
            138      -0.766667              0       -20.3609
            139      -0.761151              0       -20.3637
            140      -0.755714              0       -20.3664
            141       -0.75461              0       -20.3654
            142      -0.753521              0       -20.3643
            143      -0.751049              0       -20.3624
            144      -0.751049              0       -20.3624
            145      -0.751049              0       -20.3624
            146      -0.751049              0       -20.3624
            147      -0.751049              0       -20.3624
            148      -0.751049              0       -20.3624
            149      -0.751049              0       -20.3624
            150      -0.751049              0       -20.3624
            151      -0.751049              0       -20.3624
            152      -0.751049              0       -20.3624
            153      -0.751049              0       -20.3624
            154      -0.751049              0       -20.3624
            155      -0.751049              0       -20.3624
            156      -0.751049              0       -20.3624
            157      -0.751049              0       -20.3624
            158      -0.751049              0       -20.3624
            159      -0.751049              0       -20.3624
            160      -0.751049              0       -20.3624
            161      -0.751049              0       -20.3624
            162      -0.751049              0       -20.3624
            163      -0.751049              0       -20.3624
            164      -0.751049              0       -20.3624
            165      -0.751049              0       -20.3624
            166      -0.751049              0       -20.3624
            167      -0.751049              0       -20.3624
            168      -0.751049              0       -20.3624
            169      -0.751049              0       -20.3624
            170      -0.751049              0       -20.3624
            171      -0.751049              0       -20.3624
            172      -0.751049              0       -20.3624
            173      -0.751049              0       -20.3624
            174      -0.751049              0       -20.3624
            175      -0.751049              0       -20.3624
            176      -0.751049              0       -20.3624
            177      -0.751049              0       -20.3624
            178      -0.751049              0       -20.3624
            179      -0.751049              0       -20.3624
            180      -0.751049              0       -20.3624
            181      -0.751049              0       -20.3624
            182      -0.751049              0       -20.3624
            183      -0.751049              0       -20.3624
            184      -0.751049              0       -20.3624
            185      -0.751049              0       -20.3624
            186      -0.751049              0       -20.3624
            187      -0.751049              0       -20.3624
            188      -0.751049              0       -20.3624
            189      -0.751049              0       -20.3624
            190      -0.751049              0       -20.3624
            191      -0.751049              0       -20.3624
            192      -0.751049              0       -20.3624
            193      -0.751049              0       -20.3624
            194      -0.751049              0       -20.3624
            195      -0.751049              0       -20.3624
            196      -0.751049              0       -20.3624
            197      -0.751049              0       -20.3624
            198      -0.751049              0       -20.3624
            199      -0.751049              0       -20.3624
            200      -0.751049              0       -20.3624
            201      -0.751049              0       -20.3624
            202      -0.751049              0       -20.3624
            203      -0.751049              0       -20.3624
            204      -0.751049              0       -20.3624
            205      -0.751049              0       -20.3624
            206      -0.751049              0       -20.3624
            207      -0.751049              0       -20.3624
            208      -0.751049              0       -20.3624
            209      -0.751049              0       -20.3624
            210      -0.751049              0       -20.3624
            211      -0.751049              0       -20.3624
            212      -0.751049              0       -20.3624
            213      -0.751049              0       -20.3624
            214      -0.751049              0       -20.3624
            215      -0.751049              0       -20.3624
            216      -0.751049              0       -20.3624
            217      -0.751049              0       -20.3624
            218      -0.751049              0       -20.3624
            219      -0.751049              0       -20.3624
            220      -0.751049              0       -20.3624
            221      -0.751049              0       -20.3624
            222      -0.751049              0       -20.3624
            223      -0.751049              0       -20.3624
            224      -0.751049              0       -20.3624
            225      -0.751049              0       -20.3624
            226      -0.751049              0       -20.3624
            227      -0.751049              0       -20.3624
            228      -0.751049              0       -20.3624
            229      -0.751049              0       -20.3624
            230      -0.751049              0       -20.3624
            231      -0.751049              0       -20.3624
            232      -0.751049              0       -20.3624
            233      -0.751049              0       -20.3624
            234      -0.751049              0       -20.3624
            235      -0.751049              0       -20.3624
            236      -0.751049              0       -20.3624
            237      -0.751049              0       -20.3624
            238      -0.751049              0       -20.3624
            239      -0.751049              0       -20.3624
            240      -0.751049              0       -20.3624
            241      -0.751049              0       -20.3624
            242      -0.751049              0       -20.3624
            243      -0.751049              0       -20.3624
            244      -0.751049              0       -20.3624
            245      -0.751049              0       -20.3624
            246      -0.751049              0       -20.3624
            247      -0.751049              0       -20.3624
            248      -0.751049              0       -20.3624
            249      -0.751049              0       -20.3624
            250      -0.751049              0       -20.3624
            251      -0.751049              0       -20.3624
            252      -0.751049              0       -20.3624
            253      -0.751049              0       -20.3624
            254      -0.751049              0       -20.3624
            255      -0.751049              0       -20.3624
            256      -0.751049              0       -20.3624
            257      -0.751049              0       -20.3624
            258      -0.751049              0       -20.3624
            259      -0.751049              0       -20.3624
            260      -0.751049              0       -20.3624
            261      -0.751049              0       -20.3624
            262      -0.751049              0       -20.3624
            263      -0.751049              0       -20.3624
            264      -0.751049              0       -20.3624
            265      -0.751049              0       -20.3624
            266      -0.751049              0       -20.3624
            267      -0.751049              0       -20.3624
            268      -0.751049              0       -20.3624
            269      -0.751049              0       -20.3624
            270      -0.751049              0       -20.3624
            271      -0.751049              0       -20.3624
            272      -0.751049              0       -20.3624
            273      -0.751049              0       -20.3624
            274      -0.751049              0       -20.3624
            275      -0.751049              0       -20.3624
            276      -0.751049              0       -20.3624
            277      -0.751049              0       -20.3624
            278      -0.751049              0       -20.3624
            279      -0.751049              0       -20.3624
            280      -0.751049              0       -20.3624
            281      -0.751049              0       -20.3624
            282      -0.751049              0       -20.3624
            283      -0.751049              0       -20.3624
            284      -0.751049              0       -20.3624
            285      -0.751049              0       -20.3624
            286      -0.751049              0       -20.3624
            287      -0.751049              0       -20.3624
            288      -0.751049              0       -20.3624
            289      -0.751049              0       -20.3624
            290      -0.751049              0       -20.3624
            291      -0.751049              0       -20.3624
            292      -0.751049              0       -20.3624
            293      -0.751049              0       -20.3624
            294      -0.751049              0       -20.3624
            295      -0.751049              0       -20.3624
            296      -0.751049              0       -20.3624
            297      -0.751049              0       -20.3624
            298      -0.751049              0       -20.3624
            299      -0.751049              0       -20.3624
            300      -0.751049              0       -20.3624
            301      -0.751049              0       -20.3624
            302      -0.751049              0       -20.3624
            303      -0.751049              0       -20.3624
            304      -0.751049              0       -20.3624
            305      -0.751049              0       -20.3624
            306      -0.751049              0       -20.3624
            307      -0.751049              0       -20.3624
            308      -0.751049              0       -20.3624
            309      -0.751049              0       -20.3624
            310      -0.751049              0       -20.3624
            311      -0.751049              0       -20.3624
            312      -0.751049              0       -20.3624
            313      -0.751049              0       -20.3624
            314      -0.751049              0       -20.3624
            315      -0.751049              0       -20.3624
            316      -0.751049              0       -20.3624
            317      -0.751049              0       -20.3624
            318      -0.751049              0       -20.3624
            319      -0.751049              0       -20.3624
            320      -0.751049              0       -20.3624
            321      -0.751049              0       -20.3624
            322      -0.751049              0       -20.3624
            323      -0.751049              0       -20.3624
            324      -0.751049              0       -20.3624
            325      -0.751049              0       -20.3624
