seed=1725278593
seed2=298
L=10
nstep=10000
tw=1
Jz=0
eps=5
alpha=0
Sz=0
pbc=0
type=1
beta=10
tau=0.001
Jxy=1
wc=10
ss=1
              1           -nan           -nan           -nan
              2           -0.4              0       -21.2465
              3           -0.3              0       -21.3016
              4      -0.266667              0         -21.32
              5          -0.25              0       -21.3292
              6          -0.24              0       -21.3347
              7      -0.233333              0       -21.3383
              8      -0.228571              0        -21.341
              9         -0.225              0       -21.3429
             10      -0.222222              0       -21.3445
             11          -0.24              0       -21.3426
             12      -0.254545              0        -21.341
             13      -0.266667              0       -21.3372
             14      -0.276923              0        -21.334
             15      -0.285714              0       -21.3241
             16      -0.306667              0        -21.313
             17         -0.325              0       -21.3032
             18      -0.352941              0       -21.2966
             19      -0.377778              0       -21.2905
             20           -0.4              0       -21.2849
             21          -0.42              0       -21.2603
             22      -0.447619              0       -21.2497
             23      -0.472727              0       -21.2397
             24      -0.504348              0       -21.2221
             25          -0.55              0       -21.2053
             26         -0.568              0        -21.196
             27      -0.584615              0       -21.1924
             28      -0.607407              0       -21.1891
             29      -0.621429              0       -21.1835
             30      -0.627586              0       -21.1855
             31      -0.633333              0       -21.1885
             32      -0.651613              0       -21.1867
             33        -0.6625              0       -21.2057
             34      -0.678788              0       -21.2208
             35      -0.705882              0       -21.2268
             36      -0.737143              0       -21.2282
             37      -0.755556              0       -21.2403
             38      -0.762162              0       -21.2543
             39      -0.763158              0       -21.2696
             40      -0.764103              0       -21.2823
             41          -0.77              0       -21.2941
             42      -0.780488              0       -21.3063
             43      -0.795238              0       -21.3164
             44      -0.809302              0        -21.326
             45      -0.822727              0       -21.3351
             46      -0.835556              0       -21.3451
             47      -0.843478              0       -21.3544
             48      -0.851064              0       -21.3637
             49      -0.858333              0       -21.3718
             50      -0.865306              0       -21.3795
             51         -0.876              0       -21.3836
             52      -0.882353              0        -21.391
             53           -0.9              0       -21.4011
             54      -0.916981              0       -21.4108
             55      -0.937037              0       -21.4201
             56      -0.952727              0       -21.4293
             57      -0.967857              0       -21.4356
             58      -0.985965              0       -21.4417
             59       -1.00345              0       -21.4476
             60       -1.02034              0       -21.4534
             61       -1.03667              0       -21.4633
             62       -1.04918              0       -21.4701
             63       -1.05484              0       -21.4809
             64       -1.05714              0       -21.4926
             65        -1.0625              0       -21.5061
             66       -1.06769              0        -21.531
             67       -1.07576              0       -21.5551
             68       -1.08657              0       -21.5821
             69       -1.09706              0       -21.6084
             70       -1.10725              0       -21.6339
             71       -1.11714              0       -21.6586
             72       -1.12394              0       -21.6789
             73       -1.13056              0       -21.7011
             74       -1.13425              0       -21.7286
             75       -1.13784              0       -21.7568
             76         -1.136              0       -21.7861
             77       -1.13421              0       -21.8147
             78       -1.13247              0       -21.8446
             79       -1.13077              0       -21.8738
             80       -1.12911              0       -21.9022
             81        -1.1275              0         -21.93
             82       -1.12593              0        -21.957
             83       -1.11951              0       -21.9901
             84       -1.11325              0       -22.0224
             85       -1.10714              0        -22.054
             86       -1.10118              0       -22.0849
             87       -1.09535              0        -22.115
             88       -1.09195              0       -22.1436
             89       -1.08636              0       -22.1703
             90        -1.0809              0       -22.1964
             91       -1.07778              0       -22.2216
             92       -1.07692              0       -22.2454
             93       -1.07174              0       -22.2694
             94       -1.06667              0       -22.2929
             95        -1.0617              0       -22.3159
             96       -1.05895              0       -22.3369
             97       -1.05625              0       -22.3575
             98       -1.05155              0       -22.3779
             99        -1.0449              0       -22.3987
            100       -1.03636              0       -22.4238
            101         -1.028              0       -22.4484
            102        -1.0198              0       -22.4725
            103       -1.01176              0       -22.4962
            104       -1.00388              0       -22.5194
            105      -0.996154              0       -22.5414
            106      -0.986667              0       -22.5651
            107      -0.981132              0       -22.5857
            108      -0.979439              0       -22.6055
            109       -0.97963              0       -22.6246
            110      -0.977982              0       -22.6436
            111      -0.976364              0       -22.6624
            112      -0.974775              0       -22.6807
            113         -0.975              0       -22.6984
            114      -0.976991              0        -22.713
            115      -0.977193              0       -22.7303
            116       -0.97913              0       -22.7472
            117       -0.97931              0        -22.763
            118      -0.981197              0       -22.7782
            119      -0.981356              0       -22.7931
            120      -0.978151              0       -22.8079
            121      -0.976667              0       -22.8203
            122      -0.975207              0       -22.8338
            123       -0.97541              0       -22.8462
            124      -0.973984              0       -22.8614
            125      -0.970968              0       -22.8767
            126         -0.968              0       -22.8917
            127      -0.965079              0       -22.9064
            128       -0.96378              0       -22.9199
            129      -0.964062              0       -22.9314
            130      -0.965891              0       -22.9432
            131      -0.966154              0       -22.9551
            132      -0.966412              0       -22.9667
            133      -0.963636              0       -22.9802
            134      -0.962406              0       -22.9931
            135      -0.961194              0       -23.0073
            136          -0.96              0       -23.0213
            137      -0.957353              0       -23.0355
            138      -0.954745              0       -23.0494
            139      -0.952174              0       -23.0632
            140      -0.948201              0       -23.0769
            141      -0.944286              0        -23.089
            142      -0.941844              0       -23.1002
            143      -0.938028              0       -23.1128
            144      -0.932867              0       -23.1258
            145      -0.927778              0       -23.1386
            146      -0.922759              0       -23.1513
            147      -0.917808              0       -23.1638
            148      -0.912925              0       -23.1761
            149      -0.908108              0       -23.1883
            150      -0.903356              0       -23.2003
            151      -0.898667              0       -23.2121
            152      -0.892715              0       -23.2241
            153      -0.888158              0       -23.2337
            154      -0.884967              0       -23.2426
            155      -0.881818              0       -23.2514
            156       -0.87871              0       -23.2601
            157      -0.875641              0       -23.2686
            158      -0.872611              0       -23.2771
            159      -0.868354              0       -23.2876
            160      -0.865409              0       -23.2968
            161       -0.86125              0        -23.307
            162      -0.857143              0       -23.3172
            163      -0.853086              0       -23.3272
            164       -0.84908              0        -23.337
            165      -0.845122              0       -23.3468
            166      -0.841212              0       -23.3565
            167      -0.836145              0       -23.3665
            168      -0.831138              0       -23.3764
            169       -0.82619              0       -23.3863
            170      -0.821302              0        -23.396
            171      -0.816471              0       -23.4056
            172      -0.811696              0        -23.415
            173      -0.806977              0       -23.4244
            174      -0.804624              0       -23.4329
            175      -0.802299              0       -23.4413
            176           -0.8              0       -23.4496
            177      -0.797727              0       -23.4579
            178       -0.79548              0        -23.466
            179      -0.793258              0        -23.474
            180      -0.791061              0        -23.482
            181      -0.787778              0         -23.49
            182       -0.78453              0        -23.498
            183      -0.781319              0       -23.5058
            184      -0.778142              0       -23.5136
            185         -0.775              0       -23.5213
            186      -0.771892              0       -23.5289
            187      -0.768817              0       -23.5364
            188      -0.765775              0       -23.5438
            189       -0.76383              0        -23.551
            190      -0.762963              0       -23.5573
            191      -0.761053              0        -23.564
            192      -0.758115              0       -23.5715
            193      -0.755208              0       -23.5789
            194      -0.752332              0       -23.5862
            195      -0.749485              0       -23.5935
            196      -0.746667              0       -23.6007
            197      -0.743878              0       -23.6078
            198      -0.740102              0        -23.615
            199      -0.736364              0       -23.6221
            200      -0.732663              0       -23.6292
            201         -0.729              0       -23.6362
            202      -0.725373              0       -23.6431
            203      -0.722772              0       -23.6495
            204      -0.720197              0       -23.6559
            205      -0.719608              0       -23.6616
            206      -0.718049              0       -23.6646
            207      -0.717476              0       -23.6665
            208      -0.714976              0       -23.6729
            209        -0.7125              0       -23.6793
            210      -0.710048              0       -23.6855
            211      -0.707619              0       -23.6918
            212      -0.705213              0       -23.6979
            213       -0.70283              0        -23.704
            214      -0.699531              0       -23.7102
            215      -0.697196              0       -23.7153
            216      -0.695814              0       -23.7199
            217      -0.693519              0       -23.7254
            218      -0.691244              0       -23.7309
            219      -0.688073              0       -23.7368
            220      -0.684932              0       -23.7427
            221      -0.681818              0       -23.7486
            222      -0.678733              0       -23.7543
            223      -0.676577              0         -23.76
            224      -0.676233              0        -23.763
            225      -0.675893              0        -23.766
            226      -0.675556              0       -23.7709
            227      -0.676106              0       -23.7743
            228      -0.676652              0       -23.7789
            229      -0.677193              0       -23.7834
            230      -0.676856              0       -23.7882
            231      -0.675652              0       -23.7933
            232      -0.675325              0       -23.7979
            233      -0.674138              0       -23.8029
            234      -0.672961              0       -23.8078
            235      -0.671795              0       -23.8128
            236      -0.670638              0       -23.8177
            237      -0.669492              0       -23.8225
            238      -0.669198              0       -23.8257
            239      -0.668908              0       -23.8282
            240      -0.667782              0       -23.8319
            241      -0.665833              0       -23.8367
            242        -0.6639              0       -23.8414
            243      -0.661157              0       -23.8463
            244      -0.658436              0       -23.8512
            245      -0.656557              0        -23.855
            246      -0.654694              0       -23.8589
            247      -0.652846              0       -23.8627
            248      -0.651012              0       -23.8673
            249          -0.65              0       -23.8716
            250      -0.648193              0        -23.876
            251        -0.6456              0       -23.8806
            252      -0.643028              0       -23.8851
            253      -0.640476              0       -23.8897
            254      -0.637945              0       -23.8941
            255      -0.635433              0       -23.8986
            256      -0.632941              0        -23.903
            257      -0.630469              0       -23.9074
            258      -0.628794              0       -23.9116
            259      -0.626357              0       -23.9159
            260      -0.623938              0       -23.9202
            261      -0.621538              0       -23.9244
            262      -0.619157              0       -23.9286
            263      -0.616794              0       -23.9328
            264      -0.614449              0        -23.937
            265      -0.612121              0       -23.9411
            266      -0.610566              0       -23.9445
            267      -0.609023              0       -23.9485
            268       -0.60824              0       -23.9522
            269      -0.607463              0       -23.9558
            270      -0.606691              0       -23.9595
            271      -0.605926              0       -23.9631
            272      -0.604428              0       -23.9669
            273      -0.603676              0       -23.9706
            274       -0.60293              0       -23.9742
            275       -0.60146              0       -23.9779
            276           -0.6              0       -23.9815
            277      -0.598551              0       -23.9852
            278      -0.597834              0       -23.9886
            279      -0.597122              0       -23.9919
            280      -0.596416              0       -23.9953
            281      -0.596429              0       -23.9978
            282       -0.59573              0       -24.0006
            283      -0.595745              0       -24.0031
            284       -0.59576              0       -24.0057
            285      -0.595775              0       -24.0082
            286      -0.595789              0       -24.0111
            287      -0.595804              0       -24.0141
            288      -0.595122              0       -24.0173
            289      -0.595139              0       -24.0204
            290      -0.594464              0       -24.0236
            291      -0.593793              0       -24.0268
            292      -0.594502              0       -24.0294
            293      -0.595205              0       -24.0319
            294      -0.595222              0       -24.0344
            295      -0.595238              0       -24.0369
            296      -0.595254              0       -24.0394
            297      -0.595946              0       -24.0414
            298      -0.597306              0        -24.043
            299      -0.598658              0       -24.0447
            300      -0.599331              0       -24.0463
            301           -0.6              0        -24.048
            302      -0.600664              0       -24.0496
            303      -0.601325              0       -24.0512
            304       -0.60198              0       -24.0527
            305      -0.600658              0       -24.0558
            306      -0.599344              0       -24.0589
            307      -0.598039              0        -24.062
            308      -0.596091              0       -24.0651
            309      -0.594805              0       -24.0676
            310      -0.593528              0         -24.07
            311      -0.592258              0       -24.0724
            312      -0.590997              0       -24.0749
            313      -0.589744              0       -24.0777
            314      -0.588498              0       -24.0806
            315      -0.587261              0       -24.0834
            316      -0.586032              0       -24.0862
            317       -0.58481              0        -24.089
            318      -0.584227              0       -24.0916
            319      -0.583648              0       -24.0942
            320      -0.583072              0       -24.0968
            321        -0.5825              0       -24.0994
            322      -0.581308              0       -24.1021
            323      -0.580124              0       -24.1048
            324      -0.578947              0       -24.1075
            325      -0.578395              0       -24.1099
