seed=1725278593
seed2=386
L=10
nstep=10000
tw=1
Jz=0
eps=5
alpha=0
Sz=0
pbc=0
type=1
beta=10
tau=0.001
Jxy=1
wc=10
ss=1
              1           -nan           -nan           -nan
              2           -nan           -nan           -nan
              3           -0.4              0         -7.322
              4           -0.7              0        -7.6347
              5      -0.866667              0       -7.77326
              6           -1.1              0       -7.89748
              7          -1.28              0       -7.95307
              8       -1.43333              0       -7.97913
              9       -1.48571              0       -8.01897
             10         -1.575              0        -8.0628
             11           -1.6              0        -8.1104
             12          -1.62              0       -8.15269
             13       -1.61818              0       -8.19035
             14       -1.61667              0       -8.24558
             15           -1.6              0        -8.3004
             16       -1.58571              0       -8.34738
             17       -1.57333              0       -8.38459
             18          -1.55              0        -8.4193
             19       -1.52941              0       -8.44949
             20       -1.51111              0       -8.47744
             21       -1.50526              0       -8.50731
             22          -1.52              0       -8.54071
             23       -1.52381              0       -8.57082
             24       -1.53636              0       -8.61015
             25       -1.55652              0       -8.65245
             26       -1.56667              0       -8.70302
             27         -1.592              0       -8.77921
             28       -1.61538              0       -8.87282
             29       -1.62222              0       -8.98216
             30       -1.62857              0       -9.08482
             31       -1.62759              0       -9.21534
             32       -1.62667              0       -9.34718
             33           -1.6              0       -9.48389
             34         -1.575              0       -9.61205
             35       -1.53939              0       -9.75521
             36       -1.51176              0       -9.88831
             37       -1.48571              0       -10.0138
             38       -1.46111              0       -10.1323
             39       -1.43784              0       -10.2444
             40       -1.41579              0       -10.3506
             41           -1.4              0       -10.4513
             42         -1.385              0       -10.5587
             43       -1.37073              0       -10.6608
             44       -1.35714              0       -10.7581
             45       -1.34419              0       -10.8517
             46       -1.33636              0       -10.9415
             47       -1.32444              0       -11.0269
             48       -1.32174              0       -11.1084
             49       -1.31489              0       -11.1824
             50           -1.3              0       -11.2549
             51       -1.28571              0       -11.3243
             52       -1.28571              0       -11.3243
             53       -1.28571              0       -11.3243
             54       -1.28571              0       -11.3243
             55       -1.28571              0       -11.3243
             56       -1.28571              0       -11.3243
             57       -1.28571              0       -11.3243
             58       -1.28571              0       -11.3243
             59       -1.28571              0       -11.3243
             60       -1.28571              0       -11.3243
             61       -1.28571              0       -11.3243
             62       -1.28571              0       -11.3243
             63       -1.28571              0       -11.3243
             64       -1.28571              0       -11.3243
             65       -1.28571              0       -11.3243
             66       -1.28571              0       -11.3243
             67       -1.28571              0       -11.3243
             68       -1.28571              0       -11.3243
             69       -1.28571              0       -11.3243
             70       -1.28571              0       -11.3243
             71       -1.28571              0       -11.3243
             72       -1.28571              0       -11.3243
             73       -1.28571              0       -11.3243
             74       -1.28571              0       -11.3243
             75       -1.28571              0       -11.3243
             76       -1.28571              0       -11.3243
             77       -1.28571              0       -11.3243
             78       -1.28571              0       -11.3243
             79       -1.28571              0       -11.3243
             80       -1.28571              0       -11.3243
             81       -1.28571              0       -11.3243
             82       -1.28571              0       -11.3243
             83       -1.28571              0       -11.3243
             84       -1.28571              0       -11.3243
             85       -1.28571              0       -11.3243
             86       -1.28571              0       -11.3243
             87       -1.28571              0       -11.3243
             88       -1.28571              0       -11.3243
             89       -1.28571              0       -11.3243
             90       -1.28571              0       -11.3243
             91       -1.28571              0       -11.3243
             92       -1.28571              0       -11.3243
             93       -1.28571              0       -11.3243
             94       -1.28571              0       -11.3243
             95       -1.28571              0       -11.3243
             96       -1.28571              0       -11.3243
             97       -1.28571              0       -11.3243
             98       -1.28571              0       -11.3243
             99       -1.28571              0       -11.3243
            100       -1.28571              0       -11.3243
            101       -1.28571              0       -11.3243
            102       -1.28571              0       -11.3243
            103       -1.28571              0       -11.3243
            104       -1.28571              0       -11.3243
            105       -1.28571              0       -11.3243
            106       -1.28571              0       -11.3243
            107       -1.28571              0       -11.3243
            108       -1.28571              0       -11.3243
            109         -1.268              0       -11.4477
            110       -1.25098              0       -11.5662
            111       -1.23077              0       -11.6809
            112       -1.21132              0       -11.7912
            113       -1.19259              0       -11.8974
            114       -1.17455              0       -11.9997
            115       -1.15714              0       -12.0984
            116       -1.14035              0       -12.1935
            117       -1.12759              0       -12.2849
            118       -1.11864              0       -12.3732
            119       -1.11333              0       -12.4582
            120       -1.10492              0       -12.5401
            121       -1.09355              0       -12.6202
            122       -1.08254              0        -12.698
            123         -1.075              0       -12.7736
            124       -1.06462              0       -12.8466
            125       -1.05455              0       -12.9175
            126       -1.04478              0       -12.9862
            127       -1.03824              0       -13.0525
            128       -1.02899              0       -13.1173
            129          -1.02              0       -13.1788
            130       -1.01127              0       -13.2387
            131       -1.00278              0       -13.2973
            132      -0.994521              0       -13.3543
            133      -0.989189              0         -13.41
            134      -0.981333              0       -13.4639
            135      -0.976316              0       -13.5163
            136      -0.971429              0       -13.5673
            137      -0.966667              0        -13.617
            138      -0.962025              0       -13.6655
            139         -0.955              0       -13.7131
            140      -0.948148              0       -13.7595
            141      -0.939024              0       -13.8049
            142       -0.93494              0       -13.8495
            143      -0.930952              0        -13.893
            144      -0.931765              0       -13.9352
            145      -0.930233              0       -13.9762
            146      -0.928736              0       -14.0164
            147      -0.927273              0       -14.0556
            148      -0.925843              0       -14.0939
            149      -0.922222              0       -14.1312
            150      -0.920879              0       -14.1676
            151      -0.917391              0       -14.2028
            152      -0.911828              0       -14.2373
            153      -0.906383              0       -14.2715
            154      -0.901053              0        -14.305
            155      -0.895833              0       -14.3378
            156      -0.890722              0       -14.3699
            157      -0.885714              0       -14.4014
            158      -0.880808              0       -14.4323
            159         -0.876              0       -14.4625
            160      -0.873267              0       -14.4924
            161      -0.870588              0       -14.5219
            162      -0.867961              0       -14.5508
            163      -0.861538              0       -14.5792
            164      -0.857143              0       -14.6071
            165       -0.85283              0       -14.6344
            166      -0.848598              0       -14.6609
            167      -0.846296              0       -14.6866
            168      -0.844037              0       -14.7122
            169      -0.841818              0       -14.7375
            170       -0.83964              0       -14.7622
            171        -0.8375              0       -14.7864
            172      -0.835398              0       -14.8101
            173      -0.833333              0       -14.8338
            174      -0.829565              0       -14.8569
            175      -0.824138              0       -14.8799
            176      -0.822222              0       -14.9017
            177      -0.820339              0       -14.9236
            178      -0.816807              0       -14.9448
            179      -0.813333              0       -14.9656
            180       -0.81157              0       -14.9861
            181      -0.811475              0       -15.0066
            182      -0.811382              0       -15.0267
            183       -0.81129              0       -15.0463
            184        -0.8112              0       -15.0657
            185      -0.811111              0       -15.0844
            186      -0.809449              0       -15.1031
            187      -0.807812              0       -15.1215
            188      -0.806202              0       -15.1394
            189      -0.801538              0       -15.1573
            190      -0.796947              0        -15.175
            191      -0.793939              0       -15.1922
            192      -0.790977              0       -15.2092
            193       -0.78806              0       -15.2258
            194      -0.785185              0       -15.2423
            195      -0.783824              0       -15.2584
            196      -0.781022              0       -15.2742
            197      -0.778261              0       -15.2899
            198       -0.77554              0       -15.3057
            199      -0.772857              0       -15.3214
            200      -0.770213              0       -15.3368
            201      -0.767606              0        -15.352
            202      -0.765035              0       -15.3668
            203        -0.7625              0       -15.3814
            204          -0.76              0       -15.3958
            205      -0.758904              0       -15.4091
            206      -0.760544              0       -15.4209
            207      -0.762162              0       -15.4334
            208      -0.761074              0       -15.4463
            209      -0.761333              0       -15.4594
            210      -0.762914              0       -15.4724
            211      -0.763158              0       -15.4851
            212      -0.763399              0       -15.4977
            213      -0.762338              0       -15.5104
            214          -0.76              0       -15.5226
            215      -0.758974              0       -15.5348
            216      -0.756688              0       -15.5468
            217       -0.75443              0       -15.5587
            218      -0.752201              0       -15.5704
            219          -0.75              0       -15.5819
            220      -0.749068              0       -15.5939
            221      -0.746914              0       -15.6058
            222      -0.744785              0       -15.6176
            223      -0.742683              0       -15.6291
            224      -0.740606              0       -15.6405
            225      -0.738554              0       -15.6518
            226      -0.736527              0        -15.663
            227      -0.734524              0       -15.6737
            228      -0.733728              0       -15.6843
            229      -0.732941              0        -15.695
            230      -0.733333              0       -15.7056
            231      -0.731395              0        -15.716
            232       -0.72948              0       -15.7264
            233      -0.727586              0       -15.7367
            234      -0.726857              0       -15.7467
            235      -0.726136              0       -15.7567
            236      -0.724294              0       -15.7665
            237      -0.723596              0        -15.774
            238      -0.722905              0       -15.7813
            239      -0.723333              0       -15.7887
            240      -0.723757              0        -15.798
            241      -0.724176              0       -15.8071
            242       -0.72459              0        -15.816
            243         -0.725              0        -15.825
            244      -0.724324              0       -15.8338
            245      -0.721505              0       -15.8423
            246      -0.718717              0       -15.8507
            247      -0.715957              0       -15.8597
            248      -0.713228              0       -15.8686
            249      -0.710526              0       -15.8774
            250      -0.707853              0       -15.8861
            251      -0.704167              0       -15.8948
            252      -0.700518              0       -15.9033
            253      -0.697938              0       -15.9118
            254      -0.695385              0       -15.9201
            255      -0.693878              0       -15.9283
            256      -0.693401              0        -15.936
            257      -0.693939              0       -15.9439
            258      -0.693467              0       -15.9517
            259         -0.692              0       -15.9596
            260      -0.689552              0       -15.9674
            261      -0.688119              0       -15.9747
            262        -0.6867              0       -15.9819
            263      -0.685294              0       -15.9891
            264      -0.684878              0       -15.9959
            265      -0.685437              0       -16.0025
            266      -0.685024              0       -16.0092
            267      -0.684615              0       -16.0157
            268      -0.684211              0       -16.0224
            269       -0.68381              0       -16.0287
            270      -0.683412              0        -16.035
            271      -0.683019              0       -16.0412
            272       -0.68169              0       -16.0482
            273      -0.680374              0       -16.0551
            274       -0.67907              0       -16.0619
            275      -0.677778              0       -16.0687
            276      -0.676498              0       -16.0754
            277      -0.677064              0       -16.0812
            278      -0.677626              0       -16.0869
            279      -0.678182              0       -16.0927
            280      -0.678733              0       -16.0983
            281      -0.679279              0       -16.1039
            282      -0.678924              0         -16.11
            283      -0.678571              0        -16.116
            284      -0.678222              0        -16.122
            285      -0.678761              0        -16.128
            286      -0.679295              0        -16.134
            287      -0.678947              0       -16.1399
            288      -0.677729              0       -16.1458
            289      -0.676522              0       -16.1516
            290      -0.677056              0       -16.1573
            291      -0.678448              0       -16.1627
            292      -0.678112              0        -16.168
            293      -0.676923              0       -16.1723
            294      -0.675745              0       -16.1765
            295      -0.675745              0       -16.1765
            296      -0.675745              0       -16.1765
            297      -0.675745              0       -16.1765
            298      -0.675745              0       -16.1765
            299      -0.675745              0       -16.1765
            300      -0.675745              0       -16.1765
            301      -0.675745              0       -16.1765
            302      -0.675745              0       -16.1765
            303      -0.675745              0       -16.1765
            304      -0.675745              0       -16.1765
            305      -0.675745              0       -16.1765
            306      -0.675745              0       -16.1765
            307      -0.675745              0       -16.1765
            308      -0.675745              0       -16.1765
            309      -0.675745              0       -16.1765
            310      -0.675745              0       -16.1765
            311      -0.675745              0       -16.1765
            312      -0.675745              0       -16.1765
            313      -0.675745              0       -16.1765
            314      -0.675745              0       -16.1765
            315      -0.675745              0       -16.1765
            316      -0.675745              0       -16.1765
            317      -0.675745              0       -16.1765
            318      -0.675745              0       -16.1765
            319      -0.675745              0       -16.1765
            320      -0.675745              0       -16.1765
            321      -0.675745              0       -16.1765
            322      -0.675745              0       -16.1765
            323      -0.675745              0       -16.1765
            324      -0.675745              0       -16.1765
            325      -0.675745              0       -16.1765
