seed=1725278593
seed2=385
L=10
nstep=10000
tw=1
Jz=0
eps=5
alpha=0
Sz=0
pbc=0
type=1
beta=10
tau=0.001
Jxy=1
wc=10
ss=1
              1           -0.4              0       -21.1359
              2           -0.4              0       -21.1359
              3           -0.4              0       -21.1359
              4           -0.4              0       -21.2145
              5          -0.44              0       -21.6236
              6      -0.466667              0       -21.8964
              7      -0.485714              0       -22.1058
              8           -0.5              0       -22.2767
              9      -0.511111              0       -22.4097
             10           -0.5              0        -22.533
             11      -0.490909              0       -22.6394
             12      -0.483333              0       -22.7282
             13      -0.476923              0       -22.8032
             14      -0.485714              0       -22.8793
             15      -0.493333              0       -22.9452
             16           -0.5              0       -23.0061
             17      -0.505882              0       -23.0597
             18           -0.5              0        -23.114
             19      -0.494737              0       -23.1625
             20          -0.52              0       -23.2771
             21      -0.542857              0       -23.4202
             22      -0.563636              0       -23.5674
             23      -0.582609              0       -23.7104
             24           -0.6              0        -23.857
             25         -0.616              0       -23.9963
             26      -0.630769              0       -24.1249
             27      -0.644444              0       -24.3057
             28      -0.657143              0       -24.4736
             29      -0.668966              0       -24.6447
             30      -0.673333              0        -24.815
             31      -0.683871              0       -24.9732
             32       -0.69375              0       -25.1215
             33       -0.70303              0       -25.2604
             34      -0.711765              0       -25.3911
             35      -0.714286              0       -25.5209
             36      -0.722222              0        -25.621
             37       -0.72973              0       -25.7286
             38      -0.742105              0       -25.8231
             39      -0.753846              0       -25.9128
             40          -0.76              0       -26.0032
             41      -0.765854              0       -26.0943
             42      -0.771429              0       -26.1819
             43      -0.772093              0       -26.2638
             44      -0.768182              0       -26.3543
             45      -0.764444              0       -26.4408
             46      -0.756522              0       -26.5252
             47      -0.748936              0        -26.606
             48      -0.741667              0       -26.6834
             49      -0.738776              0       -26.7553
             50         -0.736              0       -26.8244
             51      -0.733333              0       -26.8908
             52      -0.730769              0       -26.9547
             53      -0.728302              0       -27.0162
             54      -0.722222              0       -27.0761
             55      -0.716364              0       -27.1338
             56      -0.710714              0       -27.1894
             57      -0.708772              0       -27.2359
             58      -0.706897              0       -27.2807
             59      -0.705085              0       -27.3241
             60           -0.7              0        -27.389
             61      -0.695082              0       -27.4518
             62      -0.690323              0       -27.5126
             63       -0.68254              0       -27.5779
             64      -0.671875              0       -27.6433
             65      -0.661538              0       -27.7067
             66      -0.651515              0       -27.7682
             67      -0.644776              0       -27.8274
             68      -0.635294              0       -27.8853
             69      -0.626087              0       -27.9415
             70          -0.62              0       -27.9941
             71      -0.614085              0       -28.0452
             72      -0.608333              0       -28.0907
             73       -0.60274              0       -28.1348
             74      -0.597297              0       -28.1816
             75         -0.592              0       -28.2272
             76      -0.586842              0       -28.2716
             77      -0.579221              0       -28.3169
             78      -0.571795              0       -28.3611
             79      -0.564557              0       -28.4042
             80        -0.5575              0       -28.4462
             81      -0.550617              0       -28.4872
             82      -0.543902              0       -28.5272
             83      -0.537349              0       -28.5662
             84      -0.530952              0       -28.6043
             85      -0.524706              0       -28.6414
             86       -0.52093              0       -28.6769
             87      -0.517241              0       -28.7116
             88      -0.513636              0       -28.7455
             89      -0.510112              0       -28.7786
             90      -0.506667              0        -28.811
             91      -0.503297              0       -28.8427
             92      -0.504348              0       -28.8716
             93      -0.503226              0       -28.9006
             94      -0.502128              0        -28.929
             95      -0.501053              0       -28.9568
             96           -0.5              0       -28.9834
             97      -0.498969              0       -29.0095
             98           -0.5              0       -29.0326
             99       -0.49899              0       -29.0576
            100         -0.498              0       -29.0821
            101       -0.49505              0       -29.1084
            102      -0.492157              0       -29.1343
            103      -0.487379              0       -29.1598
            104      -0.482692              0       -29.1849
            105      -0.478095              0       -29.2094
            106      -0.475472              0       -29.2315
            107      -0.472897              0       -29.2532
            108       -0.47037              0       -29.2745
            109       -0.46789              0       -29.2949
            110      -0.465455              0       -29.3149
            111      -0.461261              0        -29.337
            112      -0.457143              0       -29.3586
            113      -0.453097              0       -29.3799
            114      -0.449123              0       -29.4009
            115      -0.445217              0       -29.4214
            116      -0.441379              0       -29.4416
            117      -0.437607              0       -29.4615
            118      -0.433898              0        -29.481
            119      -0.430252              0       -29.5002
            120      -0.426667              0       -29.5191
            121       -0.42314              0       -29.5376
            122      -0.419672              0       -29.5559
            123       -0.41626              0       -29.5738
            124      -0.412903              0       -29.5915
            125        -0.4096              0       -29.6089
            126      -0.406349              0        -29.626
            127       -0.40315              0       -29.6428
            128           -0.4              0       -29.6594
            129      -0.396899              0       -29.6757
            130      -0.393846              0       -29.6918
            131       -0.39084              0       -29.7076
            132      -0.387879              0       -29.7232
            133      -0.384962              0       -29.7386
            134      -0.383582              0       -29.7531
            135      -0.382222              0       -29.7674
            136      -0.380882              0       -29.7815
            137      -0.379562              0       -29.7954
            138      -0.378261              0       -29.8091
            139       -0.37554              0       -29.8231
            140      -0.372857              0        -29.837
            141      -0.370213              0       -29.8507
            142      -0.367606              0       -29.8642
            143      -0.365035              0       -29.8775
            144      -0.363889              0       -29.8893
            145      -0.361379              0       -29.9023
            146      -0.358904              0        -29.915
            147      -0.356463              0       -29.9276
            148      -0.354054              0         -29.94
            149      -0.351678              0       -29.9523
            150      -0.349333              0       -29.9644
            151       -0.34702              0       -29.9763
            152      -0.344737              0       -29.9881
            153      -0.342484              0       -29.9997
            154       -0.34026              0       -30.0111
            155      -0.338065              0       -30.0224
            156      -0.335897              0       -30.0336
            157      -0.333758              0       -30.0446
            158      -0.331646              0       -30.0555
            159       -0.32956              0       -30.0663
            160        -0.3275              0       -30.0769
            161      -0.325466              0       -30.0874
            162      -0.324691              0       -30.0973
            163      -0.323926              0       -30.1072
            164      -0.323171              0       -30.1169
            165      -0.322424              0       -30.1265
            166      -0.320482              0       -30.1364
            167      -0.318563              0       -30.1461
            168      -0.316667              0       -30.1558
            169      -0.314793              0       -30.1653
            170      -0.312941              0       -30.1747
            171      -0.312281              0       -30.1833
            172      -0.311628              0       -30.1918
            173      -0.310983              0       -30.2002
            174      -0.310345              0       -30.2085
            175      -0.309714              0       -30.2168
            176      -0.307955              0       -30.2256
            177      -0.308475              0       -30.2332
            178      -0.308989              0       -30.2407
            179      -0.309497              0       -30.2482
            180      -0.308889              0       -30.2556
            181      -0.308287              0        -30.263
            182      -0.307692              0       -30.2708
            183      -0.308197              0       -30.2784
            184      -0.308696              0       -30.2859
            185      -0.309189              0       -30.2933
            186      -0.310753              0       -30.2994
            187      -0.313369              0       -30.3044
            188      -0.315957              0       -30.3103
            189      -0.318519              0       -30.3171
            190          -0.32              0       -30.3242
            191      -0.319372              0       -30.3316
            192       -0.31875              0        -30.339
            193      -0.318135              0       -30.3463
            194      -0.317526              0       -30.3535
            195      -0.316923              0       -30.3606
            196      -0.316327              0       -30.3677
            197      -0.315736              0       -30.3747
            198      -0.315152              0       -30.3816
            199      -0.314573              0       -30.3885
            200         -0.314              0       -30.3953
            201      -0.313433              0        -30.402
            202      -0.312871              0       -30.4086
            203      -0.312315              0       -30.4152
            204      -0.311765              0       -30.4217
            205      -0.312195              0       -30.4278
            206       -0.31165              0       -30.4342
            207      -0.311111              0       -30.4406
            208      -0.310577              0       -30.4469
            209      -0.310048              0       -30.4531
            210      -0.309524              0       -30.4592
            211      -0.309005              0       -30.4653
            212      -0.308491              0       -30.4714
            213       -0.30892              0       -30.4761
            214      -0.309346              0       -30.4809
            215      -0.309767              0       -30.4856
            216      -0.311111              0       -30.4891
            217      -0.312442              0       -30.4933
            218      -0.313761              0       -30.4976
            219      -0.314155              0       -30.5018
            220      -0.314545              0       -30.5061
            221      -0.314027              0       -30.5114
            222      -0.313514              0       -30.5167
            223      -0.313004              0        -30.522
            224      -0.311607              0       -30.5275
            225      -0.310222              0        -30.533
            226       -0.30885              0       -30.5385
            227       -0.30837              0       -30.5434
            228      -0.307895              0       -30.5482
            229      -0.307424              0       -30.5531
            230      -0.307826              0       -30.5569
            231      -0.308225              0       -30.5607
            232      -0.307759              0       -30.5654
            233      -0.309013              0       -30.5684
            234      -0.309402              0       -30.5719
            235      -0.309787              0       -30.5754
            236      -0.310169              0       -30.5791
            237      -0.310549              0       -30.5827
            238      -0.310924              0       -30.5864
            239       -0.31046              0       -30.5912
            240      -0.310833              0       -30.5959
            241      -0.312033              0        -30.599
            242      -0.313223              0       -30.6022
            243      -0.315226              0       -30.6052
            244      -0.315574              0       -30.6098
            245      -0.315918              0       -30.6143
            246       -0.31626              0       -30.6187
            247      -0.316599              0       -30.6232
            248      -0.316935              0       -30.6276
            249      -0.317269              0        -30.632
            250        -0.3168              0       -30.6364
            251      -0.315538              0       -30.6409
            252      -0.314286              0       -30.6453
            253      -0.313043              0       -30.6497
            254      -0.311811              0       -30.6541
            255      -0.310588              0       -30.6585
            256      -0.309375              0       -30.6628
            257      -0.308171              0       -30.6671
            258      -0.306977              0       -30.6713
            259      -0.305792              0       -30.6756
            260      -0.304615              0       -30.6798
            261      -0.303448              0       -30.6839
            262       -0.30229              0        -30.688
            263      -0.301141              0       -30.6921
            264           -0.3              0       -30.6962
            265      -0.298868              0       -30.7002
            266      -0.297744              0       -30.7042
            267      -0.297378              0       -30.7066
            268      -0.297015              0       -30.7089
            269      -0.295911              0       -30.7129
            270      -0.295556              0       -30.7164
            271      -0.295203              0       -30.7198
            272      -0.294853              0       -30.7233
            273      -0.294505              0       -30.7267
            274      -0.294161              0       -30.7301
            275      -0.293818              0       -30.7335
            276      -0.293478              0       -30.7368
            277      -0.292419              0       -30.7405
            278      -0.291367              0       -30.7442
            279      -0.290323              0       -30.7479
            280      -0.289286              0       -30.7515
            281      -0.288256              0       -30.7551
            282      -0.287234              0       -30.7587
            283      -0.286219              0       -30.7622
            284      -0.285211              0       -30.7658
            285      -0.284912              0       -30.7692
            286      -0.284615              0       -30.7727
            287      -0.283624              0       -30.7761
            288      -0.282639              0       -30.7796
            289      -0.281661              0        -30.783
            290       -0.28069              0       -30.7864
            291      -0.279725              0       -30.7897
            292      -0.278767              0       -30.7931
            293      -0.277816              0       -30.7964
            294      -0.276871              0       -30.7997
            295       -0.27661              0       -30.8025
            296      -0.276351              0       -30.8054
            297      -0.276094              0       -30.8082
            298      -0.275839              0        -30.811
            299      -0.276254              0       -30.8133
            300      -0.276667              0       -30.8155
            301      -0.277076              0       -30.8177
            302      -0.276821              0       -30.8205
            303      -0.276568              0       -30.8232
            304      -0.276316              0       -30.8259
            305       -0.27541              0        -30.829
            306       -0.27451              0        -30.832
            307      -0.273616              0       -30.8351
            308      -0.272727              0       -30.8381
            309      -0.271845              0       -30.8411
            310      -0.270968              0       -30.8441
            311      -0.270096              0        -30.847
            312      -0.269872              0       -30.8496
            313      -0.269649              0       -30.8522
            314      -0.269427              0       -30.8548
            315      -0.269206              0       -30.8573
            316      -0.268987              0       -30.8598
            317       -0.26877              0       -30.8623
            318      -0.267925              0       -30.8652
            319      -0.267085              0        -30.868
            320       -0.26625              0       -30.8708
            321      -0.265421              0       -30.8736
            322      -0.264596              0       -30.8764
            323      -0.263777              0       -30.8791
            324      -0.262963              0       -30.8818
            325      -0.262154              0       -30.8846
