seed=1725278593
seed2=375
L=10
nstep=10000
tw=1
Jz=0
eps=5
alpha=0
Sz=0
pbc=0
type=1
beta=10
tau=0.001
Jxy=1
wc=10
ss=1
              1              0              0       -8.06555
              2           -0.2              0       -8.48651
              3      -0.466667              0       -10.7651
              4          -0.65              0       -11.8862
              5          -0.84              0       -12.5234
              6      -0.933333              0        -13.146
              7      -0.971429              0       -13.6891
              8         -1.025              0       -14.0639
              9       -1.04444              0       -14.4172
             10          -1.04              0       -14.7019
             11       -1.03636              0        -14.925
             12       -1.03333              0        -15.111
             13       -1.09231              0       -15.2513
             14       -1.12857              0       -15.3891
             15          -1.16              0       -15.5086
             16         -1.175              0       -15.6144
             17       -1.17647              0       -15.7084
             18       -1.17778              0       -15.7849
             19       -1.15789              0        -15.869
             20          -1.14              0       -15.9446
             21       -1.12381              0        -16.013
             22           -1.1              0       -16.0823
             23       -1.07826              0       -16.1456
             24       -1.05833              0       -16.2139
             25         -1.032              0       -16.2816
             26             -1              0       -16.3445
             27      -0.985185              0        -16.397
             28      -0.971429              0       -16.4458
             29      -0.958621              0         -16.49
             30      -0.946667              0       -16.5312
             31      -0.935484              0       -16.5704
             32        -0.9375              0       -16.5992
             33      -0.939394              0       -16.6274
             34      -0.941176              0       -16.6525
             35      -0.937143              0       -16.6787
             36      -0.927778              0       -16.7005
             37      -0.918919              0       -16.7211
             38      -0.921053              0       -16.7379
             39      -0.923077              0       -16.7552
             40         -0.925              0       -16.7708
             41      -0.926829              0        -16.787
             42       -0.92381              0        -16.803
             43       -0.92093              0       -16.8184
             44      -0.918182              0        -16.833
             45      -0.906667              0       -16.8557
             46      -0.895652              0       -16.8775
             47      -0.885106              0       -16.8983
             48      -0.879167              0       -16.9173
             49      -0.873469              0       -16.9356
             50         -0.868              0       -16.9531
             51         -0.868              0       -16.9531
             52         -0.868              0       -16.9531
             53         -0.868              0       -16.9531
             54         -0.868              0       -16.9531
             55         -0.868              0       -16.9531
             56         -0.868              0       -16.9531
             57         -0.868              0       -16.9531
             58         -0.868              0       -16.9531
             59         -0.868              0       -16.9531
             60         -0.868              0       -16.9531
             61         -0.868              0       -16.9531
             62         -0.868              0       -16.9531
             63         -0.868              0       -16.9531
             64         -0.868              0       -16.9531
             65         -0.868              0       -16.9531
             66         -0.868              0       -16.9531
             67         -0.868              0       -16.9531
             68         -0.868              0       -16.9531
             69         -0.868              0       -16.9531
             70         -0.868              0       -16.9531
             71         -0.868              0       -16.9531
             72         -0.868              0       -16.9531
             73         -0.868              0       -16.9531
             74         -0.868              0       -16.9531
             75         -0.868              0       -16.9531
             76         -0.868              0       -16.9531
             77         -0.868              0       -16.9531
             78         -0.868              0       -16.9531
             79         -0.868              0       -16.9531
             80         -0.868              0       -16.9531
             81         -0.868              0       -16.9531
             82         -0.868              0       -16.9531
             83         -0.868              0       -16.9531
             84         -0.868              0       -16.9531
             85         -0.868              0       -16.9531
             86         -0.868              0       -16.9531
             87         -0.868              0       -16.9531
             88         -0.868              0       -16.9531
             89         -0.868              0       -16.9531
             90         -0.868              0       -16.9531
             91         -0.868              0       -16.9531
             92         -0.868              0       -16.9531
             93      -0.870588              0       -17.0129
             94      -0.876923              0       -17.0738
             95      -0.883019              0       -17.1329
             96      -0.881481              0       -17.1939
             97      -0.876364              0       -17.2603
             98      -0.867857              0       -17.3274
             99      -0.859649              0       -17.3921
            100      -0.855172              0       -17.4559
            101      -0.854237              0       -17.5171
            102      -0.853333              0       -17.5746
            103       -0.84918              0       -17.6274
            104      -0.845161              0       -17.6784
            105      -0.834921              0        -17.732
            106         -0.825              0       -17.7839
            107      -0.818462              0       -17.8338
            108      -0.812121              0       -17.8815
            109       -0.80597              0       -17.9283
            110           -0.8              0       -17.9751
            111      -0.797101              0       -18.0152
            112      -0.797143              0       -18.0516
            113      -0.794366              0        -18.087
            114      -0.794444              0        -18.121
            115      -0.791781              0       -18.1544
            116      -0.791892              0       -18.1864
            117         -0.792              0       -18.2176
            118      -0.794737              0       -18.2504
            119      -0.794805              0       -18.2816
            120      -0.789744              0       -18.3179
            121      -0.782278              0       -18.3538
            122         -0.775              0       -18.3889
            123      -0.767901              0        -18.423
            124      -0.760976              0       -18.4563
            125      -0.754217              0       -18.4875
            126          -0.75              0       -18.5181
            127      -0.745882              0       -18.5464
            128       -0.74186              0       -18.5745
            129      -0.737931              0        -18.602
            130      -0.734091              0       -18.6288
            131      -0.730337              0       -18.6551
            132      -0.724444              0       -18.6822
            133      -0.718681              0       -18.7088
            134      -0.715217              0       -18.7309
            135      -0.711828              0       -18.7513
            136      -0.708511              0       -18.7714
            137      -0.705263              0        -18.791
            138       -0.70625              0       -18.8107
            139      -0.703093              0       -18.8328
            140           -0.7              0       -18.8544
            141       -0.69697              0       -18.8756
            142         -0.694              0       -18.8964
            143      -0.689109              0       -18.9172
            144      -0.682353              0       -18.9392
            145      -0.675728              0       -18.9609
            146      -0.669231              0       -18.9821
            147      -0.662857              0       -19.0029
            148      -0.656604              0       -19.0234
            149      -0.650467              0       -19.0434
            150      -0.646296              0       -19.0626
            151      -0.642202              0       -19.0814
            152      -0.636364              0       -19.1003
            153      -0.630631              0        -19.119
            154         -0.625              0       -19.1373
            155      -0.619469              0       -19.1553
            156      -0.614035              0       -19.1729
            157      -0.610435              0       -19.1902
            158      -0.606897              0       -19.2071
            159      -0.603419              0       -19.2238
            160      -0.598305              0       -19.2403
            161      -0.593277              0       -19.2565
            162      -0.588333              0       -19.2724
            163      -0.585124              0       -19.2879
            164      -0.581967              0       -19.3031
            165      -0.578862              0        -19.318
            166      -0.575806              0       -19.3318
            167        -0.5728              0       -19.3454
            168      -0.568254              0       -19.3599
            169       -0.56378              0       -19.3741
            170      -0.559375              0       -19.3882
            171      -0.556589              0       -19.4018
            172      -0.553846              0       -19.4152
            173      -0.551145              0       -19.4284
            174      -0.548485              0       -19.4414
            175      -0.545865              0       -19.4539
            176      -0.543284              0       -19.4662
            177      -0.542222              0       -19.4778
            178      -0.539706              0       -19.4897
            179      -0.537226              0       -19.5015
            180      -0.534783              0       -19.5132
            181      -0.532374              0       -19.5246
            182          -0.53              0       -19.5359
            183       -0.52766              0       -19.5471
            184      -0.525352              0        -19.558
            185      -0.523077              0       -19.5689
            186      -0.522222              0       -19.5794
            187      -0.521379              0       -19.5898
            188      -0.519178              0       -19.6002
            189      -0.518367              0       -19.6104
            190      -0.517568              0       -19.6205
            191      -0.516779              0       -19.6305
            192      -0.517333              0       -19.6392
            193      -0.516556              0       -19.6489
            194      -0.515789              0       -19.6584
            195      -0.515033              0       -19.6679
            196      -0.516883              0       -19.6771
            197       -0.51871              0       -19.6856
            198      -0.519231              0       -19.6941
            199      -0.518471              0       -19.7034
            200      -0.517722              0       -19.7126
            201      -0.516981              0       -19.7217
            202         -0.515              0       -19.7307
            203      -0.513043              0       -19.7396
            204      -0.511111              0       -19.7484
            205      -0.510429              0       -19.7534
            206      -0.509756              0       -19.7584
            207      -0.509091              0       -19.7633
            208      -0.508434              0       -19.7681
            209      -0.506587              0       -19.7765
            210      -0.504762              0       -19.7847
            211      -0.502959              0       -19.7929
            212      -0.502353              0       -19.8003
            213      -0.501754              0       -19.8076
            214      -0.501163              0       -19.8149
            215      -0.500578              0       -19.8227
            216           -0.5              0       -19.8293
            217      -0.500571              0       -19.8351
            218           -0.5              0       -19.8417
            219      -0.500565              0       -19.8474
            220      -0.501124              0       -19.8531
            221      -0.501676              0       -19.8585
            222      -0.502222              0       -19.8639
            223      -0.503867              0       -19.8681
            224      -0.505495              0        -19.873
            225      -0.506011              0        -19.879
            226      -0.506522              0        -19.885
            227      -0.507027              0       -19.8909
            228      -0.507527              0       -19.8967
            229      -0.506952              0       -19.9027
            230      -0.506383              0       -19.9086
            231       -0.50582              0       -19.9144
            232      -0.505263              0       -19.9202
            233      -0.506806              0       -19.9259
            234      -0.508333              0       -19.9314
            235      -0.508808              0        -19.937
            236      -0.509278              0       -19.9425
            237      -0.510769              0       -19.9478
            238      -0.513265              0       -19.9528
            239      -0.515736              0       -19.9576
            240      -0.517172              0       -19.9628
            241      -0.518593              0       -19.9678
            242         -0.519              0       -19.9729
            243      -0.519403              0       -19.9779
            244      -0.519802              0       -19.9829
            245      -0.520197              0       -19.9878
            246      -0.520588              0       -19.9921
            247      -0.522927              0       -19.9964
            248      -0.525243              0       -20.0006
            249       -0.52657              0       -20.0055
            250      -0.527885              0       -20.0095
            251      -0.530144              0       -20.0132
            252      -0.532381              0       -20.0169
            253      -0.533649              0       -20.0215
            254      -0.535849              0       -20.0249
            255      -0.538028              0       -20.0285
            256      -0.539252              0       -20.0324
            257      -0.540465              0       -20.0361
            258      -0.540741              0       -20.0399
            259      -0.542857              0       -20.0421
            260      -0.543119              0       -20.0454
            261      -0.542466              0         -20.05
            262      -0.541818              0       -20.0545
            263      -0.542986              0       -20.0572
            264      -0.544144              0       -20.0598
            265      -0.544395              0       -20.0626
            266      -0.544643              0       -20.0655
            267      -0.545778              0       -20.0678
            268      -0.546903              0       -20.0712
            269      -0.548899              0        -20.073
            270          -0.55              0        -20.075
            271      -0.551092              0       -20.0771
            272      -0.553913              0       -20.0777
            273      -0.554113              0       -20.0801
            274      -0.553448              0       -20.0833
            275      -0.551073              0       -20.0879
            276      -0.548718              0       -20.0926
            277      -0.546383              0       -20.0971
            278      -0.544915              0        -20.101
            279      -0.544304              0       -20.1053
            280      -0.543697              0       -20.1096
            281      -0.542259              0       -20.1135
            282      -0.541667              0       -20.1169
            283      -0.541079              0       -20.1205
            284      -0.540496              0        -20.124
            285      -0.539918              0       -20.1275
            286      -0.539344              0       -20.1308
            287      -0.540408              0       -20.1331
            288       -0.54065              0       -20.1359
            289      -0.540081              0       -20.1397
            290      -0.539516              0       -20.1435
            291      -0.540562              0       -20.1457
            292        -0.5416              0       -20.1479
            293      -0.542629              0       -20.1501
            294      -0.542063              0       -20.1527
            295      -0.541502              0       -20.1552
            296      -0.540157              0       -20.1589
            297      -0.538824              0       -20.1626
            298        -0.5375              0       -20.1662
            299      -0.536187              0       -20.1698
            300      -0.534884              0       -20.1734
            301      -0.533591              0       -20.1769
            302      -0.532308              0       -20.1804
            303      -0.531034              0       -20.1839
            304      -0.529771              0       -20.1874
            305      -0.529278              0       -20.1907
            306      -0.528788              0        -20.194
            307      -0.529057              0       -20.1971
            308      -0.529323              0       -20.2001
            309      -0.529588              0       -20.2026
            310      -0.529104              0       -20.2052
            311      -0.528625              0       -20.2077
            312      -0.528889              0         -20.21
            313      -0.529151              0        -20.212
            314      -0.529412              0        -20.214
            315       -0.52967              0       -20.2157
            316      -0.529927              0        -20.218
            317      -0.530182              0       -20.2202
            318       -0.52971              0       -20.2228
            319      -0.529242              0       -20.2253
            320      -0.529496              0       -20.2278
            321      -0.529749              0         -20.23
            322          -0.53              0       -20.2322
            323      -0.530249              0       -20.2343
            324      -0.530496              0       -20.2363
            325      -0.530742              0       -20.2384
