seed=1725259037
seed2=56
L=10
nstep=10000
tw=1
Jz=0
eps=5
alpha=0
Sz=0
pbc=0
type=1
beta=10
tau=0.001
Jxy=1
wc=10
ss=1
              1           -1.2              0       -5.66753
              2           -1.3              0       -5.93659
              3       -1.46667              0        -6.0043
              4          -1.65              0       -6.04718
              5          -1.76              0       -6.18896
              6       -1.86667              0       -6.41399
              7             -2              0       -6.64343
              8          -2.15              0       -6.79139
              9       -2.28889              0       -6.96456
             10          -2.42              0       -7.14335
             11       -2.47273              0       -7.28306
             12       -2.51667              0       -7.37384
             13       -2.55385              0       -7.53518
             14       -2.58571              0        -7.7115
             15       -2.57333              0        -7.8479
             16          -2.55              0       -7.98343
             17       -2.52941              0       -8.10354
             18       -2.51111              0       -8.23412
             19       -2.47368              0       -8.37322
             20          -2.42              0       -8.48305
             21           -2.4              0       -8.63054
             22       -2.36364              0       -8.78416
             23       -2.32174              0       -8.95726
             24       -2.28333              0       -9.11808
             25         -2.264              0       -9.26403
             26       -2.24615              0       -9.39876
             27       -2.22963              0       -9.52337
             28       -2.19286              0       -9.64663
             29       -2.15862              0       -9.76138
             30       -2.13333              0        -9.8653
             31       -2.10968              0       -9.96268
             32        -2.0875              0       -10.0595
             33       -2.06061              0        -10.152
             34       -2.03529              0       -10.2392
             35       -2.00571              0       -10.3248
             36       -1.97778              0       -10.4059
             37       -1.94595              0       -10.4983
             38       -1.91053              0       -10.5879
             39       -1.88718              0       -10.6632
             40          -1.87              0       -10.7336
             41        -1.8439              0       -10.8081
             42       -1.82381              0       -10.8789
             43       -1.80465              0       -10.9434
             44       -1.79091              0       -11.0027
             45       -1.76889              0        -11.063
             46       -1.74783              0       -11.1206
             47       -1.72766              0       -11.1745
             48        -1.7125              0       -11.2168
             49       -1.70204              0       -11.2554
             50         -1.688              0       -11.2945
             51       -1.68627              0        -11.332
             52       -1.68077              0       -11.3724
             53       -1.67547              0       -11.4112
             54       -1.67037              0       -11.4407
             55       -1.66545              0       -11.4591
             56       -1.66429              0       -11.4784
             57       -1.66316              0       -11.5054
             58       -1.65862              0       -11.5345
             59       -1.65424              0       -11.5625
             60       -1.64667              0       -11.5937
             61       -1.63934              0       -11.6208
             62       -1.63226              0       -11.6494
             63        -1.6254              0       -11.6771
             64       -1.61563              0        -11.706
             65       -1.60615              0       -11.7337
             66       -1.60303              0       -11.7601
             67           -1.6              0       -11.7855
             68       -1.59118              0         -11.81
             69       -1.58261              0       -11.8347
             70       -1.57714              0       -11.8566
             71       -1.57183              0       -11.8778
             72       -1.56389              0       -11.8984
             73        -1.5589              0       -11.9174
             74       -1.55405              0       -11.9357
             75         -1.552              0        -11.956
             76       -1.54737              0       -11.9768
             77       -1.54545              0       -11.9974
             78       -1.54359              0       -12.0164
             79        -1.5443              0       -12.0323
             80          -1.54              0       -12.0492
             81          -1.54              0       -12.0492
             82          -1.54              0       -12.0492
             83          -1.54              0       -12.0492
             84          -1.54              0       -12.0492
             85          -1.54              0       -12.0492
             86          -1.54              0       -12.0492
             87          -1.54              0       -12.0492
             88          -1.54              0       -12.0492
             89          -1.54              0       -12.0492
             90          -1.54              0       -12.0492
             91          -1.54              0       -12.0492
             92          -1.54              0       -12.0492
             93          -1.54              0       -12.0492
             94          -1.54              0       -12.0492
             95          -1.54              0       -12.0492
             96          -1.54              0       -12.0492
             97          -1.54              0       -12.0492
             98          -1.54              0       -12.0492
             99          -1.54              0       -12.0492
            100          -1.54              0       -12.0492
            101          -1.54              0       -12.0492
            102          -1.54              0       -12.0492
            103          -1.54              0       -12.0492
            104          -1.54              0       -12.0492
            105          -1.54              0       -12.0492
            106          -1.54              0       -12.0492
            107          -1.54              0       -12.0492
            108          -1.54              0       -12.0492
            109          -1.54              0       -12.0492
            110          -1.54              0       -12.0492
            111          -1.54              0       -12.0492
            112          -1.54              0       -12.0492
            113          -1.54              0       -12.0492
            114          -1.54              0       -12.0492
            115          -1.54              0       -12.0492
            116          -1.54              0       -12.0492
            117          -1.54              0       -12.0492
            118          -1.54              0       -12.0492
            119          -1.54              0       -12.0492
            120          -1.54              0       -12.0492
            121          -1.54              0       -12.0492
            122          -1.54              0       -12.0492
            123          -1.54              0       -12.0492
            124          -1.54              0       -12.0492
            125          -1.54              0       -12.0492
            126          -1.54              0       -12.0492
            127          -1.54              0       -12.0492
            128          -1.54              0       -12.0492
            129          -1.54              0       -12.0492
            130          -1.54              0       -12.0492
            131          -1.54              0       -12.0492
            132          -1.54              0       -12.0492
            133          -1.54              0       -12.0492
            134          -1.54              0       -12.0492
            135          -1.54              0       -12.0492
            136          -1.54              0       -12.0492
            137          -1.54              0       -12.0492
            138          -1.54              0       -12.0492
            139          -1.54              0       -12.0492
            140          -1.54              0       -12.0492
            141          -1.54              0       -12.0492
            142          -1.54              0       -12.0492
            143          -1.54              0       -12.0492
            144          -1.54              0       -12.0492
            145          -1.54              0       -12.0492
            146          -1.54              0       -12.0492
            147          -1.54              0       -12.0492
            148          -1.54              0       -12.0492
            149          -1.54              0       -12.0492
            150          -1.54              0       -12.0492
            151          -1.54              0       -12.0492
            152          -1.54              0       -12.0492
            153          -1.54              0       -12.0492
            154          -1.54              0       -12.0492
            155          -1.54              0       -12.0492
            156          -1.54              0       -12.0492
            157          -1.54              0       -12.0492
            158          -1.54              0       -12.0492
            159          -1.54              0       -12.0492
            160          -1.54              0       -12.0492
            161          -1.54              0       -12.0492
            162          -1.54              0       -12.0492
            163          -1.54              0       -12.0492
            164          -1.54              0       -12.0492
            165          -1.54              0       -12.0492
            166          -1.54              0       -12.0492
            167          -1.54              0       -12.0492
            168          -1.54              0       -12.0492
            169          -1.54              0       -12.0492
            170          -1.54              0       -12.0492
            171          -1.54              0       -12.0492
            172          -1.54              0       -12.0492
            173          -1.54              0       -12.0492
            174          -1.54              0       -12.0492
            175          -1.54              0       -12.0492
            176          -1.54              0       -12.0492
            177          -1.54              0       -12.0492
            178          -1.54              0       -12.0492
            179          -1.54              0       -12.0492
            180          -1.54              0       -12.0492
            181          -1.54              0       -12.0492
            182          -1.54              0       -12.0492
            183          -1.54              0       -12.0492
            184          -1.54              0       -12.0492
            185          -1.54              0       -12.0492
            186          -1.54              0       -12.0492
            187          -1.54              0       -12.0492
            188          -1.54              0       -12.0492
            189          -1.54              0       -12.0492
            190          -1.54              0       -12.0492
            191          -1.54              0       -12.0492
            192          -1.54              0       -12.0492
            193          -1.54              0       -12.0492
            194          -1.54              0       -12.0492
            195          -1.54              0       -12.0492
            196          -1.54              0       -12.0492
            197          -1.54              0       -12.0492
            198          -1.54              0       -12.0492
            199          -1.54              0       -12.0492
            200          -1.54              0       -12.0492
            201          -1.54              0       -12.0492
            202          -1.54              0       -12.0492
            203          -1.54              0       -12.0492
            204          -1.54              0       -12.0492
            205          -1.54              0       -12.0492
            206          -1.54              0       -12.0492
            207          -1.54              0       -12.0492
            208          -1.54              0       -12.0492
            209          -1.54              0       -12.0492
            210          -1.54              0       -12.0492
            211          -1.54              0       -12.0492
            212          -1.54              0       -12.0492
            213          -1.54              0       -12.0492
            214          -1.54              0       -12.0492
            215          -1.54              0       -12.0492
            216          -1.54              0       -12.0492
            217          -1.54              0       -12.0492
            218          -1.54              0       -12.0492
            219          -1.54              0       -12.0492
            220          -1.54              0       -12.0492
            221          -1.54              0       -12.0492
            222          -1.54              0       -12.0492
            223          -1.54              0       -12.0492
            224          -1.54              0       -12.0492
            225          -1.54              0       -12.0492
            226          -1.54              0       -12.0492
            227          -1.54              0       -12.0492
            228          -1.54              0       -12.0492
            229          -1.54              0       -12.0492
            230          -1.54              0       -12.0492
            231          -1.54              0       -12.0492
            232          -1.54              0       -12.0492
            233          -1.54              0       -12.0492
            234          -1.54              0       -12.0492
            235          -1.54              0       -12.0492
            236          -1.54              0       -12.0492
            237          -1.54              0       -12.0492
            238          -1.54              0       -12.0492
            239          -1.54              0       -12.0492
            240          -1.54              0       -12.0492
            241          -1.54              0       -12.0492
            242          -1.54              0       -12.0492
            243          -1.54              0       -12.0492
            244          -1.54              0       -12.0492
            245          -1.54              0       -12.0492
            246          -1.54              0       -12.0492
            247          -1.54              0       -12.0492
            248          -1.54              0       -12.0492
            249          -1.54              0       -12.0492
            250          -1.54              0       -12.0492
            251          -1.54              0       -12.0492
            252          -1.54              0       -12.0492
            253          -1.54              0       -12.0492
            254          -1.54              0       -12.0492
            255          -1.54              0       -12.0492
            256          -1.54              0       -12.0492
            257          -1.54              0       -12.0492
            258          -1.54              0       -12.0492
            259          -1.54              0       -12.0492
            260          -1.54              0       -12.0492
            261          -1.54              0       -12.0492
            262          -1.54              0       -12.0492
            263          -1.54              0       -12.0492
            264          -1.54              0       -12.0492
            265          -1.54              0       -12.0492
            266          -1.54              0       -12.0492
            267          -1.54              0       -12.0492
            268          -1.54              0       -12.0492
            269          -1.54              0       -12.0492
            270          -1.54              0       -12.0492
            271          -1.54              0       -12.0492
            272          -1.54              0       -12.0492
            273          -1.54              0       -12.0492
            274          -1.54              0       -12.0492
            275          -1.54              0       -12.0492
            276          -1.54              0       -12.0492
            277          -1.54              0       -12.0492
            278          -1.54              0       -12.0492
            279          -1.54              0       -12.0492
            280          -1.54              0       -12.0492
            281          -1.54              0       -12.0492
            282          -1.54              0       -12.0492
            283          -1.54              0       -12.0492
            284          -1.54              0       -12.0492
            285          -1.54              0       -12.0492
            286          -1.54              0       -12.0492
            287          -1.54              0       -12.0492
            288          -1.54              0       -12.0492
            289          -1.54              0       -12.0492
            290          -1.54              0       -12.0492
            291          -1.54              0       -12.0492
            292          -1.54              0       -12.0492
            293          -1.54              0       -12.0492
            294          -1.54              0       -12.0492
            295          -1.54              0       -12.0492
            296          -1.54              0       -12.0492
            297          -1.54              0       -12.0492
            298          -1.54              0       -12.0492
            299          -1.54              0       -12.0492
            300          -1.54              0       -12.0492
            301          -1.54              0       -12.0492
            302          -1.54              0       -12.0492
            303          -1.54              0       -12.0492
            304          -1.54              0       -12.0492
            305          -1.54              0       -12.0492
            306          -1.54              0       -12.0492
            307          -1.54              0       -12.0492
            308          -1.54              0       -12.0492
            309          -1.54              0       -12.0492
            310          -1.54              0       -12.0492
            311          -1.54              0       -12.0492
            312          -1.54              0       -12.0492
            313          -1.54              0       -12.0492
            314          -1.54              0       -12.0492
            315          -1.54              0       -12.0492
            316          -1.54              0       -12.0492
            317          -1.54              0       -12.0492
            318          -1.54              0       -12.0492
            319          -1.54              0       -12.0492
            320          -1.54              0       -12.0492
            321          -1.54              0       -12.0492
            322          -1.54              0       -12.0492
            323          -1.54              0       -12.0492
            324          -1.54              0       -12.0492
            325          -1.54              0       -12.0492
