seed=1725239196
seed2=187
L=10
nstep=10000
tw=1
Jz=0
eps=5
alpha=0
Sz=0
pbc=0
type=1
beta=10
tau=0.001
Jxy=1
wc=10
ss=1
              1           -0.4              0       -10.7366
              2           -0.6              0       -11.0825
              3      -0.733333              0       -11.1831
              4          -0.85              0       -11.2353
              5          -0.92              0       -11.2916
              6          -0.92              0       -11.2916
              7          -0.92              0       -11.2916
              8          -0.92              0       -11.2916
              9          -0.92              0       -11.2916
             10          -0.92              0       -11.2916
             11          -0.92              0       -11.2916
             12          -0.92              0       -11.2916
             13          -0.92              0       -11.2916
             14          -0.92              0       -11.2916
             15          -0.92              0       -11.2916
             16          -0.92              0       -11.2916
             17          -0.92              0       -11.2916
             18          -0.92              0       -11.2916
             19          -0.92              0       -11.2916
             20          -0.92              0       -11.2916
             21          -0.92              0       -11.2916
             22          -0.92              0       -11.2916
             23          -0.92              0       -11.2916
             24          -0.92              0       -11.2916
             25          -0.92              0       -11.2916
             26          -0.92              0       -11.2916
             27          -0.92              0       -11.2916
             28          -0.92              0       -11.2916
             29          -0.92              0       -11.2916
             30          -0.92              0       -11.2916
             31          -0.92              0       -11.2916
             32          -0.92              0       -11.2916
             33          -0.92              0       -11.2916
             34          -0.92              0       -11.2916
             35          -0.92              0       -11.2916
             36          -0.92              0       -11.2916
             37          -0.92              0       -11.2916
             38          -0.92              0       -11.2916
             39          -0.92              0       -11.2916
             40          -0.92              0       -11.2916
             41          -0.92              0       -11.2916
             42          -0.92              0       -11.2916
             43          -0.92              0       -11.2916
             44          -0.92              0       -11.2916
             45          -0.92              0       -11.2916
             46          -0.92              0       -11.2916
             47          -0.92              0       -11.2916
             48          -0.92              0       -11.2916
             49          -0.92              0       -11.2916
             50          -0.92              0       -11.2916
             51          -0.92              0       -11.2916
             52          -0.92              0       -11.2916
             53          -0.92              0       -11.2916
             54          -0.92              0       -11.2916
             55          -0.92              0       -11.2916
             56          -0.92              0       -11.2916
             57          -0.92              0       -11.2916
             58          -0.92              0       -11.2916
             59          -0.92              0       -11.2916
             60          -0.92              0       -11.2916
             61          -0.92              0       -11.2916
             62          -0.92              0       -11.2916
             63          -0.92              0       -11.2916
             64          -0.92              0       -11.2916
             65          -0.92              0       -11.2916
             66          -0.92              0       -11.2916
             67          -0.92              0       -11.2916
             68          -0.92              0       -11.2916
             69          -0.92              0       -11.2916
             70          -0.92              0       -11.2916
             71          -0.92              0       -11.2916
             72          -0.92              0       -11.2916
             73          -0.92              0       -11.2916
             74          -0.92              0       -11.2916
             75          -0.92              0       -11.2916
             76          -0.92              0       -11.2916
             77          -0.92              0       -11.2916
             78          -0.92              0       -11.2916
             79          -0.92              0       -11.2916
             80          -0.92              0       -11.2916
             81          -0.92              0       -11.2916
             82          -0.92              0       -11.2916
             83          -0.92              0       -11.2916
             84          -0.92              0       -11.2916
             85          -0.92              0       -11.2916
             86          -0.92              0       -11.2916
             87          -0.92              0       -11.2916
             88          -0.92              0       -11.2916
             89          -0.92              0       -11.2916
             90          -0.92              0       -11.2916
             91          -0.92              0       -11.2916
             92          -0.92              0       -11.2916
             93          -0.92              0       -11.2916
             94          -0.92              0       -11.2916
             95          -0.92              0       -11.2916
             96          -0.92              0       -11.2916
             97          -0.92              0       -11.2916
             98          -0.92              0       -11.2916
             99          -0.92              0       -11.2916
            100          -0.92              0       -11.2916
            101          -0.92              0       -11.2916
            102          -0.92              0       -11.2916
            103          -0.92              0       -11.2916
            104          -0.92              0       -11.2916
            105          -0.92              0       -11.2916
            106          -0.92              0       -11.2916
            107          -0.92              0       -11.2916
            108          -0.92              0       -11.2916
            109          -0.92              0       -11.2916
            110          -0.92              0       -11.2916
            111          -0.92              0       -11.2916
            112          -0.92              0       -11.2916
            113          -0.92              0       -11.2916
            114          -0.92              0       -11.2916
            115          -0.92              0       -11.2916
            116          -0.92              0       -11.2916
            117          -0.92              0       -11.2916
            118          -0.92              0       -11.2916
            119          -0.92              0       -11.2916
            120          -0.92              0       -11.2916
            121          -0.92              0       -11.2916
            122          -0.92              0       -11.2916
            123          -0.92              0       -11.2916
            124          -0.92              0       -11.2916
            125          -0.92              0       -11.2916
            126          -0.92              0       -11.2916
            127          -0.92              0       -11.2916
            128          -0.92              0       -11.2916
            129          -0.92              0       -11.2916
            130          -0.92              0       -11.2916
            131          -0.92              0       -11.2916
            132          -0.92              0       -11.2916
            133          -0.92              0       -11.2916
            134          -0.92              0       -11.2916
            135          -0.92              0       -11.2916
            136          -0.92              0       -11.2916
            137          -0.92              0       -11.2916
            138          -0.92              0       -11.2916
            139          -0.92              0       -11.2916
            140          -0.92              0       -11.2916
            141          -0.92              0       -11.2916
            142          -0.92              0       -11.2916
            143          -0.92              0       -11.2916
            144          -0.92              0       -11.2916
            145          -0.92              0       -11.2916
            146          -0.92              0       -11.2916
            147          -0.92              0       -11.2916
            148          -0.92              0       -11.2916
            149          -0.92              0       -11.2916
            150          -0.92              0       -11.2916
            151          -0.92              0       -11.2916
            152          -0.92              0       -11.2916
            153          -0.92              0       -11.2916
            154          -0.92              0       -11.2916
            155          -0.92              0       -11.2916
            156          -0.92              0       -11.2916
            157          -0.92              0       -11.2916
            158          -0.92              0       -11.2916
            159          -0.92              0       -11.2916
            160          -0.92              0       -11.2916
            161          -0.92              0       -11.2916
            162          -0.92              0       -11.2916
            163          -0.92              0       -11.2916
            164          -0.92              0       -11.2916
            165          -0.92              0       -11.2916
            166          -0.92              0       -11.2916
            167          -0.92              0       -11.2916
            168          -0.92              0       -11.2916
            169          -0.92              0       -11.2916
            170          -0.92              0       -11.2916
            171          -0.92              0       -11.2916
            172          -0.92              0       -11.2916
            173          -0.92              0       -11.2916
            174          -0.92              0       -11.2916
            175          -0.92              0       -11.2916
            176          -0.92              0       -11.2916
            177          -0.92              0       -11.2916
            178          -0.92              0       -11.2916
            179          -0.92              0       -11.2916
            180          -0.92              0       -11.2916
            181          -0.92              0       -11.2916
            182      -0.866667              0       -12.8526
            183           -0.8              0       -13.9481
            184          -0.75              0       -14.8207
            185      -0.711111              0       -15.5831
            186          -0.68              0       -16.1931
            187      -0.672727              0       -16.6333
            188      -0.666667              0         -17.01
            189      -0.661538              0       -17.3319
            190      -0.671429              0       -17.6188
            191          -0.68              0       -17.8674
            192         -0.675              0       -18.1015
            193      -0.670588              0       -18.3081
            194      -0.655556              0       -18.4849
            195      -0.652632              0       -18.6362
            196          -0.66              0       -18.7685
            197       -0.67619              0       -18.8864
            198      -0.663636              0       -18.9995
            199       -0.66087              0       -19.1021
            200      -0.658333              0       -19.1981
            201         -0.656              0       -19.2908
            202      -0.661538              0       -19.3734
            203      -0.674074              0       -19.4442
            204      -0.685714              0       -19.5112
            205      -0.696552              0       -19.5737
            206      -0.706667              0       -19.6329
            207      -0.722581              0       -19.6819
            208        -0.7375              0       -19.7364
            209      -0.751515              0       -19.7876
            210      -0.758824              0        -19.838
            211      -0.765714              0       -19.8883
            212      -0.772222              0       -19.9357
            213      -0.778378              0       -19.9806
            214      -0.784211              0        -20.023
            215      -0.789744              0       -20.0637
            216         -0.795              0       -20.1023
            217      -0.795122              0       -20.1394
            218      -0.804762              0       -20.1723
            219      -0.818605              0       -20.1987
            220      -0.831818              0       -20.2241
            221      -0.844444              0       -20.2453
            222      -0.847826              0       -20.2732
            223      -0.851064              0       -20.2989
            224      -0.854167              0       -20.3245
            225      -0.857143              0       -20.3449
            226          -0.86              0       -20.3645
            227      -0.862745              0       -20.3847
            228      -0.853846              0       -20.4095
            229      -0.849057              0       -20.4301
            230      -0.844444              0         -20.45
            231          -0.84              0       -20.4691
            232      -0.835714              0       -20.4876
            233       -0.82807              0       -20.5071
            234       -0.82069              0       -20.5253
            235      -0.816949              0       -20.5442
            236          -0.82              0       -20.5595
            237       -0.82623              0       -20.5736
            238      -0.822581              0       -20.5891
            239      -0.819048              0       -20.6048
            240      -0.809375              0       -20.6204
            241      -0.806154              0       -20.6286
            242      -0.806061              0       -20.6346
            243       -0.80597              0       -20.6405
            244      -0.805882              0       -20.6516
            245      -0.805797              0       -20.6634
            246      -0.814286              0        -20.674
            247      -0.830986              0       -20.6807
            248      -0.844444              0       -20.6897
            249      -0.852055              0       -20.7006
            250      -0.862162              0       -20.7088
            251      -0.866667              0       -20.7175
            252      -0.868421              0       -20.7264
            253      -0.864935              0       -20.7342
            254      -0.861538              0       -20.7412
            255      -0.860759              0       -20.7475
            256          -0.86              0       -20.7537
            257      -0.859259              0       -20.7584
            258      -0.856098              0       -20.7652
            259      -0.853012              0       -20.7717
            260      -0.847619              0       -20.7825
            261      -0.842353              0        -20.793
            262      -0.839535              0       -20.8018
            263      -0.834483              0       -20.8118
            264      -0.829545              0       -20.8217
            265      -0.822472              0        -20.832
            266      -0.813333              0       -20.8425
            267      -0.804396              0       -20.8528
            268      -0.795652              0       -20.8628
            269      -0.787097              0       -20.8727
            270      -0.780851              0       -20.8805
            271      -0.776842              0       -20.8877
            272         -0.775              0       -20.8947
            273      -0.773196              0       -20.9027
            274      -0.773469              0       -20.9094
            275      -0.771717              0       -20.9157
            276         -0.768              0       -20.9223
            277      -0.768317              0       -20.9285
            278      -0.764706              0       -20.9357
            279      -0.765049              0       -20.9403
            280      -0.765385              0       -20.9448
            281      -0.767619              0       -20.9477
            282      -0.766038              0       -20.9504
            283      -0.762617              0       -20.9559
            284      -0.761111              0       -20.9601
            285      -0.757798              0       -20.9655
            286      -0.756364              0       -20.9693
            287      -0.753153              0       -20.9744
            288          -0.75              0       -20.9795
            289      -0.745133              0        -20.985
            290      -0.738596              0       -20.9919
            291      -0.737391              0       -20.9966
            292      -0.734483              0       -21.0021
            293      -0.733333              0       -21.0083
            294      -0.732203              0       -21.0143
            295      -0.732773              0       -21.0202
            296      -0.733333              0        -21.026
            297      -0.732231              0       -21.0318
            298      -0.727869              0       -21.0377
            299      -0.723577              0       -21.0435
            300      -0.719355              0       -21.0493
            301        -0.7152              0        -21.055
            302      -0.711111              0       -21.0574
            303      -0.707087              0       -21.0598
            304      -0.703125              0       -21.0621
            305      -0.699225              0       -21.0645
            306      -0.695385              0       -21.0694
            307      -0.694656              0       -21.0725
            308      -0.692424              0       -21.0761
            309      -0.690226              0       -21.0804
            310       -0.68806              0       -21.0846
            311      -0.687407              0       -21.0889
            312      -0.688235              0       -21.0917
            313      -0.689051              0       -21.0956
            314      -0.689855              0       -21.0975
            315      -0.692086              0       -21.0968
            316      -0.694286              0       -21.0962
            317      -0.695035              0       -21.0977
            318      -0.695775              0       -21.0991
            319      -0.695105              0       -21.1013
            320      -0.694444              0       -21.1034
            321      -0.692414              0       -21.1059
            322      -0.690411              0       -21.1084
            323      -0.688435              0       -21.1109
            324      -0.686486              0       -21.1133
            325      -0.684564              0       -21.1157
