seed=1725278593
seed2=199
L=10
nstep=10000
tw=1
Jz=0
eps=5
alpha=0
Sz=0
pbc=0
type=1
beta=10
tau=0.001
Jxy=1
wc=10
ss=1
              1           -nan           -nan           -nan
              2           -nan           -nan           -nan
              3           -nan           -nan           -nan
              4           -nan           -nan           -nan
              5           -nan           -nan           -nan
              6           -nan           -nan           -nan
              7           -nan           -nan           -nan
              8           -nan           -nan           -nan
              9           -nan           -nan           -nan
             10           -nan           -nan           -nan
             11           -nan           -nan           -nan
             12           -nan           -nan           -nan
             13           -nan           -nan           -nan
             14           -nan           -nan           -nan
             15           -nan           -nan           -nan
             16           -nan           -nan           -nan
             17           -nan           -nan           -nan
             18           -nan           -nan           -nan
             19           -nan           -nan           -nan
             20           -nan           -nan           -nan
             21           -nan           -nan           -nan
             22           -nan           -nan           -nan
             23           -1.4              0       -18.0133
             24           -1.4              0        -18.206
             25       -1.33333              0       -18.3119
             26          -1.25              0       -18.4363
             27          -1.16              0        -18.522
             28       -1.03333              0       -18.7583
             29      -0.942857              0        -18.927
             30          -0.85              0       -19.0567
             31      -0.755556              0       -19.1834
             32           -0.7              0       -19.2817
             33      -0.654545              0       -19.3621
             34      -0.616667              0       -19.4292
             35      -0.584615              0       -19.4859
             36      -0.557143              0       -19.5345
             37      -0.533333              0       -19.5766
             38        -0.5125              0       -19.6135
             39      -0.494118              0       -19.6461
             40      -0.488889              0       -19.6701
             41      -0.505263              0       -19.6816
             42          -0.53              0       -19.6894
             43      -0.542857              0       -19.7006
             44      -0.572727              0       -19.7098
             45      -0.591304              0       -19.7187
             46           -0.6              0       -19.7316
             47         -0.592              0       -19.7473
             48      -0.584615              0       -19.7617
             49      -0.577778              0       -19.7751
             50      -0.571429              0       -19.7875
             51      -0.565517              0        -19.799
             52          -0.56              0       -19.8098
             53      -0.548387              0       -19.8215
             54        -0.5375              0       -19.8325
             55      -0.533333              0       -19.8383
             56      -0.529412              0       -19.8437
             57      -0.525714              0       -19.8488
             58      -0.522222              0       -19.8536
             59      -0.518919              0       -19.8581
             60      -0.521053              0       -19.8609
             61      -0.517949              0       -19.8641
             62         -0.515              0       -19.8672
             63      -0.512195              0       -19.8723
             64      -0.514286              0       -19.8717
             65      -0.516279              0       -19.8711
             66      -0.518182              0       -19.8725
             67          -0.52              0       -19.8737
             68      -0.517391              0       -19.8777
             69      -0.514894              0       -19.8815
             70      -0.508333              0       -19.8864
             71      -0.497959              0       -19.8928
             72         -0.488              0       -19.8988
             73      -0.478431              0       -19.9047
             74      -0.476923              0       -19.9038
             75      -0.475472              0        -19.903
             76      -0.474074              0       -19.9062
             77      -0.472727              0       -19.9092
             78      -0.471429              0       -19.9121
             79      -0.466667              0       -19.9168
             80      -0.462069              0       -19.9213
             81      -0.457627              0       -19.9257
             82      -0.453333              0       -19.9299
             83       -0.44918              0        -19.934
             84      -0.445161              0       -19.9379
             85      -0.445161              0       -19.9379
             86      -0.445161              0       -19.9379
             87      -0.445161              0       -19.9379
             88      -0.445161              0       -19.9379
             89      -0.445161              0       -19.9379
             90      -0.445161              0       -19.9379
             91      -0.445161              0       -19.9379
             92      -0.445161              0       -19.9379
             93      -0.445161              0       -19.9379
             94      -0.445161              0       -19.9379
             95      -0.445161              0       -19.9379
             96      -0.445161              0       -19.9379
             97      -0.445161              0       -19.9379
             98      -0.445161              0       -19.9379
             99      -0.445161              0       -19.9379
            100      -0.445161              0       -19.9379
            101      -0.445161              0       -19.9379
            102      -0.445161              0       -19.9379
            103      -0.445161              0       -19.9379
            104      -0.445161              0       -19.9379
            105      -0.445161              0       -19.9379
            106      -0.445161              0       -19.9379
            107      -0.445161              0       -19.9379
            108      -0.445161              0       -19.9379
            109      -0.445161              0       -19.9379
            110      -0.445161              0       -19.9379
            111      -0.445161              0       -19.9379
            112      -0.445161              0       -19.9379
            113      -0.445161              0       -19.9379
            114      -0.445161              0       -19.9379
            115      -0.445161              0       -19.9379
            116      -0.445161              0       -19.9379
            117      -0.445161              0       -19.9379
            118      -0.445161              0       -19.9379
            119      -0.445161              0       -19.9379
            120      -0.445161              0       -19.9379
            121      -0.445161              0       -19.9379
            122      -0.445161              0       -19.9379
            123      -0.445161              0       -19.9379
            124      -0.445161              0       -19.9379
            125      -0.445161              0       -19.9379
            126      -0.445161              0       -19.9379
            127      -0.445161              0       -19.9379
            128      -0.445161              0       -19.9379
            129      -0.445161              0       -19.9379
            130      -0.445161              0       -19.9379
            131      -0.445161              0       -19.9379
            132      -0.445161              0       -19.9379
            133      -0.445161              0       -19.9379
            134      -0.445161              0       -19.9379
            135      -0.445161              0       -19.9379
            136      -0.445161              0       -19.9379
            137      -0.445161              0       -19.9379
            138      -0.445161              0       -19.9379
            139      -0.445161              0       -19.9379
            140      -0.445161              0       -19.9379
            141      -0.445161              0       -19.9379
            142      -0.445161              0       -19.9379
            143      -0.445161              0       -19.9379
            144      -0.445161              0       -19.9379
            145      -0.445161              0       -19.9379
            146      -0.445161              0       -19.9379
            147      -0.445161              0       -19.9379
            148      -0.445161              0       -19.9379
            149      -0.445161              0       -19.9379
            150      -0.445161              0       -19.9379
            151      -0.445161              0       -19.9379
            152      -0.445161              0       -19.9379
            153      -0.445161              0       -19.9379
            154      -0.445161              0       -19.9379
            155      -0.445161              0       -19.9379
            156      -0.445161              0       -19.9379
            157      -0.445161              0       -19.9379
            158      -0.445161              0       -19.9379
            159      -0.445161              0       -19.9379
            160      -0.445161              0       -19.9379
            161      -0.445161              0       -19.9379
            162      -0.445161              0       -19.9379
            163      -0.445161              0       -19.9379
            164      -0.445161              0       -19.9379
            165      -0.445161              0       -19.9379
            166      -0.445161              0       -19.9379
            167      -0.445161              0       -19.9379
            168      -0.445161              0       -19.9379
            169      -0.445161              0       -19.9379
            170      -0.445161              0       -19.9379
            171      -0.445161              0       -19.9379
            172      -0.445161              0       -19.9379
            173      -0.445161              0       -19.9379
            174      -0.445161              0       -19.9379
            175      -0.445161              0       -19.9379
            176      -0.445161              0       -19.9379
            177      -0.445161              0       -19.9379
            178      -0.445161              0       -19.9379
            179      -0.445161              0       -19.9379
            180      -0.445161              0       -19.9379
            181      -0.445161              0       -19.9379
            182      -0.445161              0       -19.9379
            183      -0.445161              0       -19.9379
            184      -0.445161              0       -19.9379
            185      -0.445161              0       -19.9379
            186      -0.445161              0       -19.9379
            187      -0.445161              0       -19.9379
            188      -0.445161              0       -19.9379
            189      -0.445161              0       -19.9379
            190      -0.445161              0       -19.9379
            191      -0.445161              0       -19.9379
            192      -0.445161              0       -19.9379
            193      -0.445161              0       -19.9379
            194      -0.445161              0       -19.9379
            195      -0.445161              0       -19.9379
            196      -0.445161              0       -19.9379
            197      -0.445161              0       -19.9379
            198      -0.445161              0       -19.9379
            199      -0.445161              0       -19.9379
            200      -0.445161              0       -19.9379
            201      -0.445161              0       -19.9379
            202      -0.445161              0       -19.9379
            203      -0.445161              0       -19.9379
            204      -0.445161              0       -19.9379
            205      -0.445161              0       -19.9379
            206      -0.445161              0       -19.9379
            207      -0.445161              0       -19.9379
            208      -0.445161              0       -19.9379
            209      -0.445161              0       -19.9379
            210      -0.445161              0       -19.9379
            211      -0.445161              0       -19.9379
            212      -0.445161              0       -19.9379
            213      -0.445161              0       -19.9379
            214      -0.445161              0       -19.9379
            215      -0.445161              0       -19.9379
            216      -0.445161              0       -19.9379
            217      -0.445161              0       -19.9379
            218      -0.445161              0       -19.9379
            219      -0.445161              0       -19.9379
            220      -0.445161              0       -19.9379
            221      -0.445161              0       -19.9379
            222      -0.445161              0       -19.9379
            223      -0.445161              0       -19.9379
            224      -0.445161              0       -19.9379
            225      -0.445161              0       -19.9379
            226      -0.445161              0       -19.9379
            227      -0.445161              0       -19.9379
            228      -0.445161              0       -19.9379
            229      -0.445161              0       -19.9379
            230      -0.445161              0       -19.9379
            231      -0.445161              0       -19.9379
            232      -0.445161              0       -19.9379
            233      -0.445161              0       -19.9379
            234      -0.445161              0       -19.9379
            235      -0.445161              0       -19.9379
            236      -0.445161              0       -19.9379
            237      -0.445161              0       -19.9379
            238      -0.445161              0       -19.9379
            239      -0.445161              0       -19.9379
            240      -0.445161              0       -19.9379
            241      -0.445161              0       -19.9379
            242      -0.445161              0       -19.9379
            243      -0.445161              0       -19.9379
            244      -0.445161              0       -19.9379
            245      -0.445161              0       -19.9379
            246      -0.445161              0       -19.9379
            247      -0.445161              0       -19.9379
            248      -0.445161              0       -19.9379
            249      -0.445161              0       -19.9379
            250      -0.445161              0       -19.9379
            251      -0.445161              0       -19.9379
            252      -0.445161              0       -19.9379
            253      -0.445161              0       -19.9379
            254      -0.445161              0       -19.9379
            255      -0.445161              0       -19.9379
            256      -0.445161              0       -19.9379
            257      -0.445161              0       -19.9379
            258      -0.445161              0       -19.9379
            259      -0.445161              0       -19.9379
            260      -0.445161              0       -19.9379
            261      -0.445161              0       -19.9379
            262      -0.445161              0       -19.9379
            263      -0.445161              0       -19.9379
            264      -0.445161              0       -19.9379
            265      -0.445161              0       -19.9379
            266      -0.445161              0       -19.9379
            267      -0.445161              0       -19.9379
            268      -0.445161              0       -19.9379
            269      -0.445161              0       -19.9379
            270      -0.445161              0       -19.9379
            271      -0.445161              0       -19.9379
            272      -0.445161              0       -19.9379
            273      -0.445161              0       -19.9379
            274      -0.445161              0       -19.9379
            275      -0.445161              0       -19.9379
            276      -0.445161              0       -19.9379
            277      -0.445161              0       -19.9379
            278      -0.445161              0       -19.9379
            279      -0.445161              0       -19.9379
            280      -0.445161              0       -19.9379
            281      -0.445161              0       -19.9379
            282      -0.445161              0       -19.9379
            283      -0.445161              0       -19.9379
            284      -0.445161              0       -19.9379
            285      -0.445161              0       -19.9379
            286      -0.445161              0       -19.9379
            287      -0.445161              0       -19.9379
            288      -0.445161              0       -19.9379
            289      -0.445161              0       -19.9379
            290      -0.445161              0       -19.9379
            291      -0.445161              0       -19.9379
            292      -0.445161              0       -19.9379
            293      -0.445161              0       -19.9379
            294      -0.445161              0       -19.9379
            295      -0.445161              0       -19.9379
            296      -0.445161              0       -19.9379
            297      -0.445161              0       -19.9379
            298      -0.445161              0       -19.9379
            299      -0.445161              0       -19.9379
            300      -0.445161              0       -19.9379
            301      -0.445161              0       -19.9379
            302      -0.445161              0       -19.9379
            303      -0.445161              0       -19.9379
            304      -0.445161              0       -19.9379
            305      -0.445161              0       -19.9379
            306      -0.445161              0       -19.9379
            307      -0.445161              0       -19.9379
            308      -0.445161              0       -19.9379
            309      -0.445161              0       -19.9379
            310      -0.445161              0       -19.9379
            311      -0.445161              0       -19.9379
            312      -0.445161              0       -19.9379
            313      -0.445161              0       -19.9379
            314      -0.445161              0       -19.9379
            315      -0.445161              0       -19.9379
            316      -0.445161              0       -19.9379
            317      -0.445161              0       -19.9379
            318      -0.445161              0       -19.9379
            319      -0.445161              0       -19.9379
            320      -0.445161              0       -19.9379
            321      -0.445161              0       -19.9379
            322      -0.445161              0       -19.9379
            323      -0.445161              0       -19.9379
            324      -0.445161              0       -19.9379
            325      -0.445161              0       -19.9379
