seed=1725259037
seed2=234
L=10
nstep=10000
tw=1
Jz=0
eps=5
alpha=0
Sz=0
pbc=0
type=1
beta=10
tau=0.001
Jxy=1
wc=10
ss=1
              1           -0.2              0       -12.7061
              2           -0.4              0       -12.7448
              3      -0.533333              0       -12.8376
              4           -0.6              0       -13.8591
              5          -0.68              0       -14.4576
              6           -0.8              0       -14.8911
              7      -0.885714              0       -15.1868
              8         -0.925              0       -15.4248
              9      -0.955556              0       -15.6099
             10             -1              0       -15.7368
             11       -1.03636              0        -15.852
             12       -1.06667              0       -15.9908
             13       -1.13846              0       -16.1826
             14       -1.21429              0       -16.3229
             15          -1.28              0       -16.4262
             16        -1.3375              0       -16.5244
             17       -1.36471              0       -16.6374
             18       -1.38889              0       -16.7568
             19           -1.4              0       -16.8666
             20          -1.41              0       -16.9803
             21        -1.4381              0       -17.0988
             22       -1.46364              0       -17.2225
             23       -1.46957              0         -17.34
             24         -1.475              0       -17.4527
             25         -1.496              0       -17.5432
             26         -1.496              0       -17.5432
             27         -1.496              0       -17.5432
             28         -1.496              0       -17.5432
             29         -1.496              0       -17.5432
             30         -1.496              0       -17.5432
             31         -1.496              0       -17.5432
             32         -1.496              0       -17.5432
             33         -1.496              0       -17.5432
             34         -1.496              0       -17.5432
             35         -1.496              0       -17.5432
             36       -1.46923              0       -17.7701
             37       -1.44444              0       -17.9803
             38       -1.42143              0       -18.1708
             39           -1.4              0       -18.3483
             40       -1.38667              0       -18.5118
             41       -1.36774              0       -18.6668
             42          -1.35              0       -18.8126
             43       -1.33333              0       -18.9426
             44       -1.31765              0        -19.065
             45       -1.28571              0       -19.2251
             46       -1.25556              0       -19.3762
             47       -1.22162              0        -19.521
             48       -1.18947              0       -19.6583
             49       -1.15897              0       -19.7884
             50         -1.145              0       -19.9089
             51       -1.13171              0       -20.0234
             52       -1.12857              0       -20.1246
             53       -1.12093              0       -20.2223
             54       -1.11364              0       -20.3157
             55       -1.10667              0       -20.4048
             56           -1.1              0       -20.4901
             57       -1.09787              0       -20.5707
             58       -1.09583              0       -20.6415
             59        -1.0898              0       -20.7114
             60          -1.08              0       -20.7838
             61       -1.06275              0       -20.8582
             62       -1.04615              0       -20.9297
             63       -1.03019              0       -20.9986
             64       -1.01481              0       -21.0627
             65             -1              0       -21.1273
             66      -0.985714              0       -21.1896
             67      -0.975439              0       -21.2477
             68      -0.962069              0       -21.3058
             69      -0.949153              0        -21.362
             70      -0.936667              0       -21.4162
             71       -0.92459              0       -21.4687
             72      -0.912903              0       -21.5195
             73      -0.904762              0       -21.5679
             74      -0.896875              0       -21.6147
             75      -0.889231              0       -21.6601
             76      -0.881818              0       -21.7041
             77      -0.874627              0       -21.7468
             78      -0.870588              0       -21.7862
             79      -0.866667              0       -21.8238
             80      -0.857143              0        -21.864
             81      -0.847887              0       -21.9031
             82      -0.844444              0       -21.9411
             83      -0.841096              0       -21.9779
             84      -0.837838              0        -22.009
             85      -0.834667              0       -22.0393
             86      -0.831579              0       -22.0687
             87      -0.828571              0       -22.0974
             88      -0.825641              0       -22.1254
             89      -0.822785              0       -22.1527
             90          -0.82              0       -22.1792
             91      -0.817284              0       -22.2085
             92      -0.812195              0       -22.2381
             93      -0.804819              0       -22.2671
             94      -0.797619              0       -22.2954
             95      -0.792941              0       -22.3214
             96      -0.788372              0       -22.3468
             97      -0.783908              0       -22.3716
             98      -0.779545              0       -22.3959
             99      -0.775281              0       -22.4196
            100      -0.771111              0       -22.4428
            101      -0.769231              0       -22.4645
            102      -0.767391              0       -22.4854
            103       -0.76129              0       -22.5091
            104      -0.755319              0       -22.5328
            105      -0.749474              0       -22.5559
            106       -0.74375              0       -22.5786
            107      -0.738144              0       -22.6007
            108      -0.732653              0       -22.6225
            109      -0.727273              0       -22.6438
            110         -0.722              0       -22.6646
            111      -0.718812              0       -22.6849
            112      -0.715686              0       -22.7048
            113      -0.712621              0       -22.7244
            114      -0.709615              0       -22.7425
            115      -0.708571              0       -22.7598
            116      -0.709434              0       -22.7764
            117       -0.71028              0       -22.7928
            118      -0.711111              0       -22.8088
            119      -0.713761              0        -22.823
            120      -0.714545              0       -22.8355
            121      -0.711712              0       -22.8508
            122      -0.707143              0       -22.8672
            123      -0.702655              0       -22.8834
            124      -0.698246              0       -22.8992
            125      -0.693913              0       -22.9148
            126      -0.689655              0       -22.9302
            127       -0.68547              0       -22.9452
            128      -0.681356              0         -22.96
            129      -0.678992              0       -22.9743
            130      -0.676667              0       -22.9884
            131       -0.67438              0       -23.0022
            132      -0.672131              0       -23.0158
            133      -0.671545              0       -23.0283
            134      -0.670968              0       -23.0406
            135        -0.6704              0       -23.0526
            136      -0.669841              0       -23.0638
            137      -0.669291              0       -23.0748
            138      -0.670313              0       -23.0844
            139      -0.671318              0       -23.0934
            140      -0.670769              0       -23.1017
            141      -0.668702              0       -23.1122
            142      -0.668182              0       -23.1222
            143      -0.670677              0       -23.1314
            144      -0.673134              0       -23.1405
            145      -0.674074              0       -23.1497
            146         -0.675              0       -23.1598
            147      -0.674453              0       -23.1688
            148      -0.673913              0       -23.1791
            149      -0.673381              0       -23.1883
            150      -0.671429              0       -23.1973
            151      -0.670922              0       -23.2028
            152      -0.670423              0       -23.2085
            153      -0.674126              0       -23.2128
            154      -0.677778              0       -23.2169
            155      -0.681379              0        -23.221
            156      -0.683562              0       -23.2256
            157      -0.684354              0       -23.2308
            158      -0.685135              0       -23.2359
            159      -0.684564              0       -23.2445
            160         -0.684              0       -23.2527
            161      -0.683444              0       -23.2607
            162      -0.688158              0       -23.2677
            163       -0.69281              0       -23.2747
            164      -0.696104              0       -23.2817
            165      -0.699355              0       -23.2883
            166      -0.698718              0       -23.2961
            167      -0.698089              0       -23.3039
            168      -0.697468              0       -23.3115
            169      -0.695597              0       -23.3194
            170       -0.69375              0       -23.3272
            171      -0.693168              0       -23.3353
            172      -0.692593              0       -23.3433
            173      -0.690798              0       -23.3516
            174      -0.689024              0       -23.3599
            175      -0.687273              0        -23.368
            176      -0.685542              0       -23.3761
            177      -0.683832              0        -23.384
            178      -0.683333              0       -23.3908
            179       -0.68284              0       -23.3983
            180      -0.681176              0       -23.4055
            181      -0.679532              0       -23.4117
            182      -0.677907              0       -23.4179
            183      -0.677457              0       -23.4235
            184      -0.678161              0       -23.4293
            185      -0.678857              0       -23.4346
            186      -0.678409              0         -23.44
            187      -0.676836              0       -23.4461
            188      -0.675281              0       -23.4521
            189      -0.673743              0       -23.4589
            190      -0.672222              0       -23.4657
            191      -0.669613              0       -23.4725
            192      -0.667033              0       -23.4793
            193      -0.665574              0       -23.4852
            194       -0.66413              0       -23.4912
            195      -0.661622              0       -23.4979
            196      -0.660215              0       -23.5028
            197      -0.658824              0       -23.5076
            198      -0.657447              0       -23.5124
            199      -0.656085              0       -23.5172
            200      -0.654737              0       -23.5219
            201      -0.652356              0       -23.5282
            202          -0.65              0       -23.5345
            203      -0.647668              0       -23.5406
            204      -0.647423              0       -23.5466
            205      -0.647179              0       -23.5526
            206      -0.647959              0       -23.5571
            207      -0.649746              0       -23.5611
            208      -0.651515              0       -23.5651
            209      -0.653266              0        -23.569
            210         -0.654              0       -23.5733
            211      -0.654726              0       -23.5776
            212      -0.654455              0        -23.582
            213      -0.654187              0       -23.5863
            214      -0.654902              0       -23.5901
            215      -0.654634              0        -23.594
            216      -0.654369              0       -23.5978
            217      -0.654106              0       -23.6022
            218      -0.653846              0       -23.6065
            219      -0.654545              0       -23.6087
            220      -0.655238              0        -23.611
            221      -0.654976              0       -23.6146
            222      -0.653774              0       -23.6189
            223      -0.650704              0       -23.6242
            224      -0.647664              0       -23.6294
            225      -0.644651              0       -23.6345
            226      -0.641667              0       -23.6396
            227       -0.63871              0       -23.6447
            228      -0.637615              0       -23.6488
            229       -0.63653              0       -23.6528
            230      -0.636364              0       -23.6567
            231      -0.636199              0       -23.6605
            232      -0.636036              0       -23.6628
            233      -0.635874              0        -23.665
            234      -0.633929              0       -23.6676
            235      -0.632889              0       -23.6697
            236      -0.630973              0       -23.6734
            237      -0.629075              0       -23.6776
            238       -0.62807              0        -23.681
            239      -0.627948              0       -23.6851
            240      -0.627826              0       -23.6892
            241       -0.62684              0       -23.6933
            242         -0.625              0       -23.6975
            243      -0.623176              0       -23.7017
            244      -0.621368              0       -23.7059
            245      -0.620426              0       -23.7098
            246      -0.619492              0       -23.7136
            247      -0.618565              0       -23.7174
            248      -0.616807              0       -23.7214
            249        -0.6159              0       -23.7253
            250         -0.615              0        -23.727
            251      -0.614108              0       -23.7283
            252      -0.613223              0       -23.7296
            253      -0.613169              0       -23.7307
            254      -0.613115              0       -23.7318
            255      -0.613061              0       -23.7329
            256      -0.613008              0       -23.7341
            257      -0.612955              0       -23.7352
            258       -0.61371              0        -23.737
            259      -0.614458              0       -23.7391
            260         -0.616              0       -23.7414
            261       -0.61753              0       -23.7439
            262      -0.619048              0       -23.7454
            263      -0.618972              0       -23.7471
            264      -0.618898              0       -23.7487
            265      -0.618824              0       -23.7503
            266      -0.620313              0       -23.7517
            267      -0.621012              0       -23.7532
            268      -0.621705              0       -23.7546
            269      -0.622394              0        -23.756
            270      -0.622308              0       -23.7571
            271      -0.623755              0        -23.758
            272      -0.625191              0        -23.759
            273      -0.626616              0       -23.7599
            274      -0.627273              0       -23.7618
            275      -0.626415              0        -23.764
            276      -0.626316              0       -23.7664
            277      -0.626966              0       -23.7685
            278      -0.627612              0       -23.7708
            279      -0.628996              0       -23.7729
            280       -0.62963              0       -23.7753
            281       -0.62952              0       -23.7783
            282      -0.628676              0       -23.7814
            283      -0.628571              0       -23.7843
            284      -0.628467              0       -23.7865
            285      -0.629091              0       -23.7895
            286       -0.62971              0       -23.7924
            287      -0.630325              0       -23.7954
            288      -0.630935              0       -23.7984
            289      -0.631541              0       -23.8013
            290      -0.632143              0       -23.8039
            291       -0.63274              0       -23.8064
            292      -0.634043              0       -23.8079
            293      -0.636749              0       -23.8087
            294      -0.638732              0       -23.8096
            295          -0.64              0       -23.8114
            296      -0.640559              0       -23.8135
            297      -0.641115              0       -23.8158
            298      -0.640972              0        -23.818
            299       -0.64083              0       -23.8202
            300       -0.64069              0       -23.8223
            301       -0.64055              0       -23.8245
            302      -0.641096              0       -23.8257
            303      -0.640956              0       -23.8283
            304      -0.640816              0       -23.8307
            305      -0.640678              0        -23.833
            306      -0.640541              0       -23.8354
            307      -0.640404              0       -23.8377
            308      -0.640268              0         -23.84
            309      -0.640134              0       -23.8422
            310          -0.64              0       -23.8445
            311      -0.639867              0       -23.8468
            312      -0.640397              0       -23.8486
            313      -0.640924              0       -23.8505
            314      -0.640789              0       -23.8523
            315          -0.64              0       -23.8547
            316      -0.638562              0       -23.8573
            317      -0.637134              0       -23.8598
            318      -0.635714              0       -23.8622
            319      -0.634304              0       -23.8647
            320      -0.632903              0       -23.8672
            321      -0.631511              0       -23.8696
            322      -0.630128              0        -23.872
            323      -0.629393              0       -23.8739
            324      -0.629299              0       -23.8754
            325      -0.629206              0       -23.8769
