seed=1725278593
seed2=274
L=10
nstep=10000
tw=1
Jz=0
eps=5
alpha=0
Sz=0
pbc=0
type=1
beta=10
tau=0.001
Jxy=1
wc=10
ss=1
              1           -nan           -nan           -nan
              2           -nan           -nan           -nan
              3           -nan           -nan           -nan
              4           -nan           -nan           -nan
              5           -nan           -nan           -nan
              6           -nan           -nan           -nan
              7           -nan           -nan           -nan
              8           -0.8              0        -17.706
              9           -0.7              0       -18.1082
             10           -0.6              0       -18.3779
             11          -0.55              0       -18.5128
             12          -0.56              0       -18.8208
             13           -0.6              0       -18.9873
             14      -0.628571              0       -19.1613
             15          -0.65              0       -19.2918
             16      -0.666667              0       -19.3816
             17          -0.64              0        -19.499
             18      -0.618182              0        -19.595
             19           -0.6              0        -19.675
             20      -0.584615              0       -19.7428
             21      -0.571429              0       -19.8008
             22          -0.56              0       -19.8501
             23          -0.55              0       -19.8932
             24      -0.529412              0       -19.9748
             25      -0.522222              0       -20.0313
             26      -0.515789              0       -20.0819
             27          -0.52              0       -20.1027
             28       -0.52381              0       -20.1316
             29      -0.527273              0       -20.1579
             30       -0.53913              0       -20.1729
             31          -0.55              0        -20.196
             32          -0.56              0       -20.2173
             33      -0.561538              0       -20.2523
             34      -0.562963              0       -20.2848
             35      -0.557143              0       -20.3155
             36      -0.544828              0       -20.3466
             37      -0.533333              0       -20.3755
             38      -0.522581              0       -20.3963
             39       -0.51875              0       -20.4043
             40      -0.521212              0       -20.4161
             41      -0.523529              0       -20.4268
             42      -0.525714              0       -20.4368
             43      -0.533333              0       -20.4346
             44      -0.535135              0       -20.4411
             45      -0.542105              0       -20.4415
             46      -0.548718              0       -20.4418
             47         -0.555              0       -20.4512
             48      -0.556098              0       -20.4638
             49      -0.552381              0       -20.4799
             50      -0.544186              0       -20.4974
             51      -0.531818              0       -20.5154
             52          -0.52              0       -20.5326
             53      -0.508696              0        -20.549
             54      -0.506383              0       -20.5635
             55      -0.508333              0       -20.5715
             56      -0.506122              0        -20.585
             57         -0.504              0       -20.5979
             58      -0.501961              0       -20.6103
             59      -0.503846              0       -20.6217
             60       -0.50566              0       -20.6327
             61      -0.503704              0       -20.6436
             62      -0.505455              0       -20.6538
             63      -0.503571              0       -20.6644
             64      -0.501754              0       -20.6746
             65           -0.5              0       -20.6845
             66      -0.494915              0       -20.6944
             67          -0.49              0       -20.7041
             68      -0.488525              0       -20.7107
             69      -0.487097              0        -20.717
             70      -0.485714              0       -20.7232
             71      -0.484375              0       -20.7291
             72      -0.483077              0       -20.7349
             73      -0.478788              0       -20.7431
             74      -0.474627              0        -20.751
             75      -0.473529              0       -20.7581
             76      -0.469565              0       -20.7656
             77      -0.462857              0       -20.7731
             78      -0.456338              0       -20.7803
             79          -0.45              0       -20.7874
             80      -0.443836              0       -20.7943
             81      -0.437838              0        -20.801
             82      -0.434667              0       -20.8062
             83      -0.431579              0       -20.8114
             84      -0.425974              0       -20.8176
             85      -0.420513              0       -20.8236
             86      -0.417722              0        -20.826
             87         -0.415              0       -20.8284
             88      -0.412346              0       -20.8307
             89      -0.412195              0       -20.8321
             90      -0.412048              0       -20.8336
             91      -0.411905              0        -20.835
             92      -0.411765              0       -20.8395
             93      -0.413953              0       -20.8435
             94      -0.413793              0        -20.847
             95      -0.413636              0       -20.8504
             96      -0.413483              0       -20.8537
             97      -0.413333              0       -20.8579
             98      -0.413187              0       -20.8621
             99      -0.415217              0        -20.864
            100      -0.417204              0       -20.8659
            101      -0.417021              0       -20.8694
            102      -0.416842              0       -20.8727
            103       -0.41875              0       -20.8753
            104       -0.42268              0       -20.8779
            105       -0.42449              0       -20.8807
            106      -0.426263              0       -20.8828
            107         -0.428              0       -20.8849
            108      -0.429703              0       -20.8874
            109      -0.431373              0       -20.8899
            110       -0.43301              0       -20.8909
            111      -0.434615              0       -20.8919
            112       -0.43619              0       -20.8929
            113      -0.437736              0       -20.8938
            114      -0.437383              0        -20.896
            115      -0.437037              0       -20.8982
            116      -0.436697              0       -20.9003
            117      -0.434545              0       -20.9032
            118      -0.432432              0       -20.9058
            119      -0.430357              0        -20.908
            120      -0.430088              0       -20.9093
            121      -0.429825              0       -20.9088
            122      -0.427826              0       -20.9116
            123      -0.425862              0       -20.9142
            124      -0.423932              0       -20.9168
            125      -0.420339              0         -20.92
            126      -0.416807              0       -20.9231
            127         -0.415              0        -20.924
            128      -0.414876              0       -20.9199
            129      -0.414754              0       -20.9173
            130       -0.41626              0       -20.9145
            131      -0.417742              0        -20.907
            132        -0.4192              0       -20.8997
            133      -0.420635              0       -20.8941
            134      -0.423622              0        -20.892
            135      -0.426563              0         -20.89
            136      -0.427907              0       -20.8882
            137      -0.429231              0       -20.8864
            138      -0.433588              0       -20.8838
            139      -0.436364              0       -20.8807
            140      -0.440602              0       -20.8781
            141      -0.446269              0       -20.8752
            142      -0.451852              0       -20.8723
            143      -0.455882              0       -20.8701
            144      -0.458394              0       -20.8684
            145      -0.456522              0       -20.8683
            146      -0.454676              0       -20.8681
            147      -0.454286              0       -20.8675
            148      -0.452482              0       -20.8701
            149      -0.450704              0       -20.8726
            150      -0.448951              0       -20.8751
            151      -0.447222              0       -20.8776
            152      -0.445517              0       -20.8797
            153      -0.443836              0       -20.8819
            154      -0.442177              0        -20.884
            155      -0.439189              0       -20.8867
            156      -0.437584              0       -20.8882
            157         -0.436              0       -20.8897
            158      -0.435762              0       -20.8911
            159      -0.435526              0       -20.8925
            160      -0.435294              0       -20.8939
            161      -0.435065              0       -20.8953
            162      -0.434839              0       -20.8966
            163      -0.434615              0        -20.898
            164      -0.434395              0       -20.8957
            165      -0.435443              0       -20.8932
            166      -0.437736              0         -20.89
            167          -0.44              0       -20.8869
            168      -0.442236              0       -20.8836
            169      -0.441975              0       -20.8821
            170      -0.441718              0        -20.881
            171      -0.441463              0       -20.8799
            172          -0.44              0       -20.8796
            173      -0.438554              0       -20.8793
            174      -0.435928              0       -20.8817
            175      -0.434524              0       -20.8841
            176       -0.43432              0       -20.8839
            177      -0.431765              0       -20.8863
            178      -0.430409              0       -20.8877
            179       -0.42907              0       -20.8883
            180      -0.427746              0       -20.8888
            181      -0.426437              0       -20.8894
            182      -0.425143              0       -20.8899
            183         -0.425              0       -20.8908
            184      -0.424859              0       -20.8917
            185      -0.426966              0       -20.8919
            186      -0.430168              0       -20.8909
            187      -0.432222              0       -20.8905
            188      -0.434254              0       -20.8901
            189      -0.437363              0       -20.8895
            190      -0.440437              0        -20.887
            191      -0.443478              0       -20.8856
            192      -0.446486              0       -20.8857
            193      -0.449462              0       -20.8861
            194      -0.450267              0       -20.8869
            195      -0.451064              0       -20.8881
            196      -0.451852              0       -20.8893
            197      -0.452632              0       -20.8904
            198      -0.453403              0       -20.8916
            199      -0.454167              0       -20.8927
            200      -0.455959              0       -20.8929
            201      -0.457732              0       -20.8911
            202      -0.458462              0       -20.8888
            203      -0.459184              0       -20.8865
            204      -0.459898              0       -20.8859
            205      -0.460606              0       -20.8861
            206      -0.460302              0       -20.8866
            207          -0.46              0        -20.887
            208      -0.460697              0       -20.8879
            209      -0.461386              0       -20.8887
            210      -0.462069              0       -20.8878
            211      -0.461765              0        -20.888
            212      -0.460488              0       -20.8885
            213      -0.459223              0        -20.889
            214      -0.457971              0       -20.8902
            215      -0.456731              0       -20.8919
            216      -0.455502              0       -20.8935
            217      -0.454286              0       -20.8951
            218      -0.454028              0        -20.896
            219      -0.454717              0       -20.8968
            220      -0.455399              0       -20.8967
            221      -0.456075              0        -20.896
            222      -0.457674              0       -20.8952
            223      -0.459259              0       -20.8943
            224      -0.460829              0       -20.8935
            225      -0.461468              0       -20.8941
            226        -0.4621              0       -20.8951
            227      -0.461818              0       -20.8962
            228      -0.461538              0       -20.8974
            229       -0.46036              0        -20.899
            230      -0.459193              0       -20.9007
            231      -0.458036              0       -20.9023
            232      -0.457778              0       -20.9037
            233      -0.457522              0        -20.905
            234      -0.457269              0       -20.9064
            235      -0.457018              0       -20.9078
            236      -0.456769              0       -20.9091
            237      -0.457391              0       -20.9088
            238      -0.457143              0        -20.909
            239      -0.456034              0       -20.9094
            240      -0.454936              0       -20.9109
            241      -0.454701              0       -20.9117
            242      -0.454468              0       -20.9125
            243      -0.454237              0       -20.9129
            244      -0.454008              0       -20.9134
            245      -0.453782              0       -20.9138
            246      -0.453556              0        -20.914
            247      -0.454167              0       -20.9136
            248      -0.454772              0        -20.913
            249      -0.456198              0       -20.9126
            250      -0.455967              0       -20.9137
            251      -0.455738              0       -20.9149
            252      -0.456327              0       -20.9155
            253      -0.456911              0       -20.9163
            254       -0.45668              0       -20.9171
            255      -0.456452              0       -20.9179
            256      -0.456225              0       -20.9186
            257         -0.456              0       -20.9194
            258       -0.45498              0       -20.9205
            259      -0.453968              0       -20.9217
            260      -0.452964              0       -20.9228
            261      -0.452756              0       -20.9239
            262      -0.452549              0       -20.9253
            263      -0.450781              0       -20.9267
            264      -0.449027              0       -20.9281
            265      -0.448062              0       -20.9291
            266      -0.447104              0         -20.93
            267      -0.445385              0       -20.9314
            268      -0.443678              0       -20.9328
            269      -0.441985              0       -20.9341
            270      -0.440304              0       -20.9355
            271      -0.438636              0       -20.9368
            272      -0.436981              0       -20.9381
            273      -0.435338              0       -20.9395
            274      -0.433708              0       -20.9408
            275       -0.43209              0       -20.9421
            276      -0.430483              0       -20.9434
            277      -0.428889              0       -20.9446
            278      -0.427306              0       -20.9459
            279      -0.425735              0       -20.9472
            280      -0.424176              0       -20.9484
            281      -0.422628              0       -20.9497
            282      -0.421091              0       -20.9509
            283      -0.419565              0       -20.9521
            284      -0.418051              0       -20.9534
            285      -0.416547              0       -20.9546
            286      -0.415771              0       -20.9556
            287      -0.415714              0        -20.956
            288       -0.41637              0       -20.9561
            289      -0.417021              0       -20.9562
            290      -0.417668              0       -20.9562
            291      -0.417606              0       -20.9566
            292      -0.417544              0       -20.9571
            293      -0.417483              0       -20.9575
            294      -0.417422              0       -20.9579
            295      -0.416667              0       -20.9585
            296      -0.416609              0       -20.9589
            297      -0.417241              0       -20.9577
            298      -0.417869              0       -20.9566
            299      -0.419178              0       -20.9554
            300      -0.419113              0        -20.955
            301      -0.418367              0       -20.9547
            302      -0.417627              0       -20.9543
            303      -0.416892              0       -20.9539
            304      -0.416162              0       -20.9536
            305      -0.416107              0        -20.953
            306      -0.414716              0       -20.9542
            307      -0.413333              0       -20.9553
            308       -0.41196              0       -20.9564
            309      -0.410596              0       -20.9575
            310      -0.409241              0       -20.9586
            311      -0.407895              0       -20.9597
            312      -0.406557              0       -20.9608
            313      -0.405229              0       -20.9618
            314       -0.40456              0       -20.9628
            315      -0.403896              0       -20.9637
            316      -0.402589              0       -20.9648
            317       -0.40129              0       -20.9658
            318           -0.4              0       -20.9669
            319      -0.398718              0       -20.9679
            320      -0.397444              0       -20.9689
            321      -0.396815              0       -20.9698
            322       -0.39619              0       -20.9707
            323       -0.39557              0       -20.9715
            324      -0.394953              0       -20.9724
            325       -0.39434              0       -20.9732
