seed=1725259037
seed2=256
L=10
nstep=10000
tw=1
Jz=0
eps=5
alpha=0
Sz=0
pbc=0
type=1
beta=10
tau=0.001
Jxy=1
wc=10
ss=1
              1           -0.6              0       -3.80634
              2           -0.8              0        -7.4718
              3      -0.933333              0       -8.80601
              4           -1.1              0        -9.5484
              5           -1.2              0       -10.0353
              6       -1.23333              0       -10.5101
              7       -1.22857              0       -10.8763
              8         -1.225              0       -11.1535
              9           -1.2              0       -11.3921
             10          -1.18              0       -11.5923
             11          -1.18              0       -11.5923
             12          -1.18              0       -11.5923
             13          -1.18              0       -11.5923
             14          -1.18              0       -11.5923
             15          -1.18              0       -11.5923
             16          -1.18              0       -11.5923
             17          -1.18              0       -11.5923
             18          -1.18              0       -11.5923
             19          -1.18              0       -11.5923
             20          -1.18              0       -11.5923
             21          -1.18              0       -11.5923
             22          -1.18              0       -11.5923
             23          -1.18              0       -11.5923
             24          -1.18              0       -11.5923
             25          -1.18              0       -11.5923
             26          -1.18              0       -11.5923
             27          -1.18              0       -11.5923
             28          -1.18              0       -11.5923
             29          -1.18              0       -11.5923
             30          -1.18              0       -11.5923
             31          -1.18              0       -11.5923
             32          -1.18              0       -11.5923
             33          -1.18              0       -11.5923
             34          -1.18              0       -11.5923
             35          -1.18              0       -11.5923
             36          -1.18              0       -11.5923
             37          -1.18              0       -11.5923
             38          -1.18              0       -11.5923
             39          -1.18              0       -11.5923
             40          -1.18              0       -11.5923
             41          -1.18              0       -11.5923
             42          -1.18              0       -11.5923
             43          -1.18              0       -11.5923
             44          -1.18              0       -11.5923
             45          -1.18              0       -11.5923
             46          -1.18              0       -11.5923
             47          -1.18              0       -11.5923
             48          -1.18              0       -11.5923
             49          -1.18              0       -11.5923
             50          -1.18              0       -11.5923
             51          -1.18              0       -11.5923
             52          -1.18              0       -11.5923
             53          -1.18              0       -11.5923
             54          -1.18              0       -11.5923
             55          -1.18              0       -11.5923
             56          -1.18              0       -11.5923
             57          -1.18              0       -11.5923
             58          -1.18              0       -11.5923
             59          -1.18              0       -11.5923
             60          -1.18              0       -11.5923
             61          -1.18              0       -11.5923
             62          -1.18              0       -11.5923
             63          -1.18              0       -11.5923
             64          -1.18              0       -11.5923
             65          -1.18              0       -11.5923
             66          -1.18              0       -11.5923
             67          -1.18              0       -11.5923
             68          -1.18              0       -11.5923
             69          -1.18              0       -11.5923
             70          -1.18              0       -11.5923
             71          -1.18              0       -11.5923
             72          -1.18              0       -11.5923
             73          -1.18              0       -11.5923
             74          -1.18              0       -11.5923
             75          -1.18              0       -11.5923
             76          -1.18              0       -11.5923
             77          -1.18              0       -11.5923
             78          -1.18              0       -11.5923
             79          -1.18              0       -11.5923
             80          -1.18              0       -11.5923
             81          -1.18              0       -11.5923
             82          -1.18              0       -11.5923
             83          -1.18              0       -11.5923
             84          -1.18              0       -11.5923
             85          -1.18              0       -11.5923
             86          -1.18              0       -11.5923
             87          -1.18              0       -11.5923
             88          -1.18              0       -11.5923
             89          -1.18              0       -11.5923
             90          -1.18              0       -11.5923
             91          -1.18              0       -11.5923
             92          -1.18              0       -11.5923
             93          -1.18              0       -11.5923
             94          -1.18              0       -11.5923
             95          -1.18              0       -11.5923
             96          -1.18              0       -11.5923
             97          -1.18              0       -11.5923
             98          -1.18              0       -11.5923
             99          -1.18              0       -11.5923
            100          -1.18              0       -11.5923
            101          -1.18              0       -11.5923
            102          -1.18              0       -11.5923
            103          -1.18              0       -11.5923
            104          -1.18              0       -11.5923
            105          -1.18              0       -11.5923
            106          -1.18              0       -11.5923
            107          -1.18              0       -11.5923
            108          -1.18              0       -11.5923
            109          -1.18              0       -11.5923
            110          -1.18              0       -11.5923
            111          -1.18              0       -11.5923
            112          -1.18              0       -11.5923
            113          -1.18              0       -11.5923
            114          -1.18              0       -11.5923
            115          -1.18              0       -11.5923
            116          -1.18              0       -11.5923
            117          -1.18              0       -11.5923
            118          -1.18              0       -11.5923
            119          -1.18              0       -11.5923
            120          -1.18              0       -11.5923
            121          -1.18              0       -11.5923
            122          -1.18              0       -11.5923
            123          -1.18              0       -11.5923
            124          -1.18              0       -11.5923
            125          -1.18              0       -11.5923
            126          -1.18              0       -11.5923
            127          -1.18              0       -11.5923
            128          -1.18              0       -11.5923
            129          -1.18              0       -11.5923
            130          -1.18              0       -11.5923
            131          -1.18              0       -11.5923
            132          -1.18              0       -11.5923
            133          -1.18              0       -11.5923
            134          -1.18              0       -11.5923
            135          -1.18              0       -11.5923
            136          -1.18              0       -11.5923
            137          -1.18              0       -11.5923
            138          -1.18              0       -11.5923
            139          -1.18              0       -11.5923
            140          -1.18              0       -11.5923
            141          -1.18              0       -11.5923
            142          -1.18              0       -11.5923
            143          -1.18              0       -11.5923
            144          -1.18              0       -11.5923
            145          -1.18              0       -11.5923
            146          -1.18              0       -11.5923
            147          -1.18              0       -11.5923
            148          -1.18              0       -11.5923
            149          -1.18              0       -11.5923
            150          -1.18              0       -11.5923
            151          -1.18              0       -11.5923
            152          -1.18              0       -11.5923
            153          -1.18              0       -11.5923
            154          -1.18              0       -11.5923
            155          -1.18              0       -11.5923
            156          -1.18              0       -11.5923
            157          -1.18              0       -11.5923
            158          -1.18              0       -11.5923
            159          -1.18              0       -11.5923
            160          -1.18              0       -11.5923
            161          -1.18              0       -11.5923
            162          -1.18              0       -11.5923
            163          -1.18              0       -11.5923
            164          -1.18              0       -11.5923
            165          -1.18              0       -11.5923
            166          -1.18              0       -11.5923
            167          -1.18              0       -11.5923
            168          -1.18              0       -11.5923
            169          -1.18              0       -11.5923
            170          -1.18              0       -11.5923
            171          -1.18              0       -11.5923
            172          -1.18              0       -11.5923
            173          -1.18              0       -11.5923
            174          -1.18              0       -11.5923
            175          -1.18              0       -11.5923
            176          -1.18              0       -11.5923
            177          -1.18              0       -11.5923
            178          -1.18              0       -11.5923
            179          -1.18              0       -11.5923
            180          -1.18              0       -11.5923
            181          -1.18              0       -11.5923
            182          -1.18              0       -11.5923
            183          -1.18              0       -11.5923
            184          -1.18              0       -11.5923
            185          -1.18              0       -11.5923
            186          -1.18              0       -11.5923
            187          -1.18              0       -11.5923
            188          -1.18              0       -11.5923
            189          -1.18              0       -11.5923
            190          -1.18              0       -11.5923
            191          -1.18              0       -11.5923
            192          -1.18              0       -11.5923
            193          -1.18              0       -11.5923
            194          -1.18              0       -11.5923
            195          -1.18              0       -11.5923
            196          -1.18              0       -11.5923
            197          -1.18              0       -11.5923
            198          -1.18              0       -11.5923
            199          -1.18              0       -11.5923
            200          -1.18              0       -11.5923
            201          -1.18              0       -11.5923
            202          -1.18              0       -11.5923
            203          -1.18              0       -11.5923
            204          -1.18              0       -11.5923
            205          -1.18              0       -11.5923
            206          -1.18              0       -11.5923
            207          -1.18              0       -11.5923
            208          -1.18              0       -11.5923
            209          -1.18              0       -11.5923
            210          -1.18              0       -11.5923
            211          -1.18              0       -11.5923
            212          -1.18              0       -11.5923
            213          -1.18              0       -11.5923
            214          -1.18              0       -11.5923
            215          -1.18              0       -11.5923
            216          -1.18              0       -11.5923
            217          -1.18              0       -11.5923
            218          -1.18              0       -11.5923
            219          -1.18              0       -11.5923
            220          -1.18              0       -11.5923
            221          -1.18              0       -11.5923
            222          -1.18              0       -11.5923
            223          -1.18              0       -11.5923
            224          -1.18              0       -11.5923
            225          -1.18              0       -11.5923
            226          -1.18              0       -11.5923
            227          -1.18              0       -11.5923
            228          -1.18              0       -11.5923
            229          -1.18              0       -11.5923
            230          -1.18              0       -11.5923
            231          -1.18              0       -11.5923
            232          -1.18              0       -11.5923
            233          -1.18              0       -11.5923
            234          -1.18              0       -11.5923
            235          -1.18              0       -11.5923
            236          -1.18              0       -11.5923
            237          -1.18              0       -11.5923
            238          -1.18              0       -11.5923
            239          -1.18              0       -11.5923
            240          -1.18              0       -11.5923
            241          -1.18              0       -11.5923
            242          -1.18              0       -11.5923
            243          -1.18              0       -11.5923
            244          -1.18              0       -11.5923
            245          -1.18              0       -11.5923
            246          -1.18              0       -11.5923
            247          -1.18              0       -11.5923
            248          -1.18              0       -11.5923
            249          -1.18              0       -11.5923
            250          -1.18              0       -11.5923
            251          -1.18              0       -11.5923
            252          -1.18              0       -11.5923
            253          -1.18              0       -11.5923
            254          -1.18              0       -11.5923
            255          -1.18              0       -11.5923
            256          -1.18              0       -11.5923
            257          -1.18              0       -11.5923
            258          -1.18              0       -11.5923
            259          -1.18              0       -11.5923
            260          -1.18              0       -11.5923
            261          -1.18              0       -11.5923
            262          -1.18              0       -11.5923
            263          -1.18              0       -11.5923
            264          -1.18              0       -11.5923
            265          -1.18              0       -11.5923
            266          -1.18              0       -11.5923
            267          -1.18              0       -11.5923
            268          -1.18              0       -11.5923
            269          -1.18              0       -11.5923
            270          -1.18              0       -11.5923
            271          -1.18              0       -11.5923
            272          -1.18              0       -11.5923
            273          -1.18              0       -11.5923
            274          -1.18              0       -11.5923
            275          -1.18              0       -11.5923
            276          -1.18              0       -11.5923
            277          -1.18              0       -11.5923
            278          -1.18              0       -11.5923
            279          -1.18              0       -11.5923
            280          -1.18              0       -11.5923
            281          -1.18              0       -11.5923
            282          -1.18              0       -11.5923
            283          -1.18              0       -11.5923
            284          -1.18              0       -11.5923
            285          -1.18              0       -11.5923
            286          -1.18              0       -11.5923
            287          -1.18              0       -11.5923
            288          -1.18              0       -11.5923
            289          -1.18              0       -11.5923
            290          -1.18              0       -11.5923
            291          -1.18              0       -11.5923
            292          -1.18              0       -11.5923
            293          -1.18              0       -11.5923
            294          -1.18              0       -11.5923
            295          -1.18              0       -11.5923
            296          -1.18              0       -11.5923
            297          -1.18              0       -11.5923
            298          -1.18              0       -11.5923
            299          -1.18              0       -11.5923
            300          -1.18              0       -11.5923
            301          -1.18              0       -11.5923
            302          -1.18              0       -11.5923
            303          -1.18              0       -11.5923
            304          -1.18              0       -11.5923
            305          -1.18              0       -11.5923
            306          -1.18              0       -11.5923
            307          -1.18              0       -11.5923
            308          -1.18              0       -11.5923
            309          -1.18              0       -11.5923
            310          -1.18              0       -11.5923
            311          -1.18              0       -11.5923
            312          -1.18              0       -11.5923
            313          -1.18              0       -11.5923
            314          -1.18              0       -11.5923
            315          -1.18              0       -11.5923
            316          -1.18              0       -11.5923
            317          -1.18              0       -11.5923
            318          -1.18              0       -11.5923
            319          -1.18              0       -11.5923
            320          -1.18              0       -11.5923
            321          -1.18              0       -11.5923
            322          -1.18              0       -11.5923
            323          -1.18              0       -11.5923
            324          -1.18              0       -11.5923
            325          -1.18              0       -11.5923
