seed=1725278593
seed2=62
L=10
nstep=10000
tw=1
Jz=0
eps=5
alpha=0
Sz=0
pbc=0
type=1
beta=10
tau=0.001
Jxy=1
wc=10
ss=1
              1           -0.6              0       -12.3008
              2           -0.9              0       -12.9137
              3       -1.13333              0       -13.4635
              4          -1.25              0       -13.7568
              5          -1.36              0       -14.0362
              6       -1.43333              0       -14.3041
              7       -1.51429              0       -14.4878
              8           -1.5              0       -14.9273
              9       -1.48889              0       -15.2691
             10          -1.42              0       -15.5789
             11       -1.36364              0       -15.7913
             12       -1.31667              0       -15.9714
             13       -1.27692              0       -16.1429
             14       -1.24286              0       -16.2899
             15           -1.2              0       -16.4427
             16          -1.15              0       -16.5766
             17       -1.10588              0       -16.6947
             18       -1.06667              0       -16.7997
             19       -1.03158              0       -16.8895
             20          -1.01              0       -16.9816
             21      -0.990476              0       -17.0649
             22      -0.981818              0       -17.1377
             23      -0.982609              0       -17.2008
             24         -0.975              0       -17.2718
             25         -0.968              0       -17.3331
             26      -0.961538              0       -17.3889
             27      -0.948148              0       -17.4464
             28          -0.95              0       -17.4918
             29      -0.965517              0       -17.5317
             30          -0.96              0       -17.5729
             31      -0.967742              0       -17.6097
             32        -0.9625              0       -17.6469
             33      -0.969697              0       -17.6797
             34      -0.970588              0       -17.6997
             35      -0.971429              0       -17.7188
             36      -0.966667              0       -17.7497
             37      -0.962162              0       -17.7811
             38      -0.973684              0        -17.808
             39      -0.989744              0       -17.8335
             40             -1              0        -17.856
             41       -1.00488              0       -17.8759
             42       -1.01429              0        -17.894
             43       -1.03721              0       -17.9072
             44       -1.04545              0       -17.9227
             45       -1.06222              0       -17.9369
             46       -1.07826              0       -17.9486
             47       -1.08936              0       -17.9613
             48           -1.1              0       -17.9746
             49       -1.10204              0       -17.9886
             50           -1.1              0       -18.0029
             51       -1.09412              0       -18.0172
             52       -1.08846              0        -18.031
             53       -1.08302              0       -18.0429
             54       -1.07037              0       -18.0607
             55       -1.07037              0       -18.0607
             56       -1.07037              0       -18.0607
             57       -1.07037              0       -18.0607
             58       -1.07037              0       -18.0607
             59       -1.07037              0       -18.0607
             60       -1.07037              0       -18.0607
             61       -1.07037              0       -18.0607
             62       -1.07037              0       -18.0607
             63       -1.07037              0       -18.0607
             64       -1.07037              0       -18.0607
             65       -1.07037              0       -18.0607
             66       -1.07037              0       -18.0607
             67       -1.07037              0       -18.0607
             68       -1.07037              0       -18.0607
             69       -1.07037              0       -18.0607
             70       -1.07037              0       -18.0607
             71       -1.07037              0       -18.0607
             72       -1.07037              0       -18.0607
             73       -1.07037              0       -18.0607
             74       -1.07037              0       -18.0607
             75       -1.07037              0       -18.0607
             76       -1.07037              0       -18.0607
             77       -1.07037              0       -18.0607
             78       -1.07037              0       -18.0607
             79       -1.07037              0       -18.0607
             80       -1.07037              0       -18.0607
             81       -1.07037              0       -18.0607
             82       -1.07037              0       -18.0607
             83       -1.07037              0       -18.0607
             84       -1.07037              0       -18.0607
             85       -1.07037              0       -18.0607
             86       -1.07037              0       -18.0607
             87       -1.07037              0       -18.0607
             88       -1.07037              0       -18.0607
             89       -1.07037              0       -18.0607
             90       -1.07037              0       -18.0607
             91       -1.07037              0       -18.0607
             92       -1.07037              0       -18.0607
             93       -1.07037              0       -18.0607
             94       -1.07037              0       -18.0607
             95       -1.07037              0       -18.0607
             96       -1.07037              0       -18.0607
             97       -1.07037              0       -18.0607
             98       -1.07037              0       -18.0607
             99       -1.07037              0       -18.0607
            100       -1.07037              0       -18.0607
            101       -1.07037              0       -18.0607
            102       -1.07037              0       -18.0607
            103       -1.07037              0       -18.0607
            104       -1.07037              0       -18.0607
            105       -1.07037              0       -18.0607
            106       -1.07037              0       -18.0607
            107       -1.07037              0       -18.0607
            108       -1.07037              0       -18.0607
            109       -1.07037              0       -18.0607
            110       -1.07037              0       -18.0607
            111       -1.07037              0       -18.0607
            112       -1.07037              0       -18.0607
            113       -1.07037              0       -18.0607
            114       -1.07037              0       -18.0607
            115       -1.07037              0       -18.0607
            116       -1.07037              0       -18.0607
            117       -1.07037              0       -18.0607
            118       -1.07037              0       -18.0607
            119       -1.07037              0       -18.0607
            120       -1.07037              0       -18.0607
            121       -1.07037              0       -18.0607
            122       -1.07037              0       -18.0607
            123       -1.07037              0       -18.0607
            124       -1.07037              0       -18.0607
            125       -1.07037              0       -18.0607
            126       -1.07037              0       -18.0607
            127       -1.07037              0       -18.0607
            128       -1.07037              0       -18.0607
            129       -1.07037              0       -18.0607
            130       -1.07037              0       -18.0607
            131       -1.07037              0       -18.0607
            132       -1.07037              0       -18.0607
            133       -1.07037              0       -18.0607
            134       -1.07037              0       -18.0607
            135       -1.07037              0       -18.0607
            136       -1.07037              0       -18.0607
            137       -1.07037              0       -18.0607
            138       -1.07037              0       -18.0607
            139       -1.07037              0       -18.0607
            140       -1.07037              0       -18.0607
            141       -1.07037              0       -18.0607
            142       -1.07037              0       -18.0607
            143       -1.07037              0       -18.0607
            144       -1.07037              0       -18.0607
            145       -1.07037              0       -18.0607
            146       -1.07037              0       -18.0607
            147       -1.07037              0       -18.0607
            148       -1.07037              0       -18.0607
            149       -1.07037              0       -18.0607
            150       -1.07037              0       -18.0607
            151       -1.07037              0       -18.0607
            152       -1.07037              0       -18.0607
            153       -1.07037              0       -18.0607
            154       -1.07037              0       -18.0607
            155       -1.07037              0       -18.0607
            156       -1.07037              0       -18.0607
            157       -1.07037              0       -18.0607
            158       -1.07037              0       -18.0607
            159       -1.07037              0       -18.0607
            160       -1.07037              0       -18.0607
            161       -1.07037              0       -18.0607
            162       -1.07037              0       -18.0607
            163       -1.07037              0       -18.0607
            164       -1.07037              0       -18.0607
            165       -1.07037              0       -18.0607
            166       -1.07037              0       -18.0607
            167       -1.07037              0       -18.0607
            168       -1.07037              0       -18.0607
            169       -1.07037              0       -18.0607
            170       -1.07037              0       -18.0607
            171       -1.07037              0       -18.0607
            172       -1.07037              0       -18.0607
            173       -1.07037              0       -18.0607
            174       -1.07037              0       -18.0607
            175       -1.07037              0       -18.0607
            176       -1.07037              0       -18.0607
            177       -1.07037              0       -18.0607
            178       -1.07037              0       -18.0607
            179       -1.07037              0       -18.0607
            180       -1.07037              0       -18.0607
            181       -1.07037              0       -18.0607
            182       -1.07037              0       -18.0607
            183       -1.07037              0       -18.0607
            184       -1.07037              0       -18.0607
            185       -1.07037              0       -18.0607
            186       -1.07037              0       -18.0607
            187       -1.07037              0       -18.0607
            188       -1.07037              0       -18.0607
            189       -1.07037              0       -18.0607
            190       -1.07037              0       -18.0607
            191       -1.07037              0       -18.0607
            192       -1.07037              0       -18.0607
            193       -1.07037              0       -18.0607
            194       -1.07037              0       -18.0607
            195       -1.07037              0       -18.0607
            196       -1.07037              0       -18.0607
            197       -1.07037              0       -18.0607
            198       -1.07037              0       -18.0607
            199       -1.07037              0       -18.0607
            200       -1.07037              0       -18.0607
            201       -1.07037              0       -18.0607
            202       -1.07037              0       -18.0607
            203       -1.07037              0       -18.0607
            204       -1.07037              0       -18.0607
            205       -1.07037              0       -18.0607
            206       -1.07037              0       -18.0607
            207       -1.07037              0       -18.0607
            208       -1.07037              0       -18.0607
            209       -1.07037              0       -18.0607
            210       -1.07037              0       -18.0607
            211       -1.07037              0       -18.0607
            212       -1.07037              0       -18.0607
            213       -1.07037              0       -18.0607
            214       -1.07037              0       -18.0607
            215       -1.07037              0       -18.0607
            216       -1.07037              0       -18.0607
            217       -1.07037              0       -18.0607
            218       -1.07037              0       -18.0607
            219       -1.07037              0       -18.0607
            220       -1.07037              0       -18.0607
            221       -1.07037              0       -18.0607
            222       -1.07037              0       -18.0607
            223       -1.07037              0       -18.0607
            224       -1.07037              0       -18.0607
            225       -1.07037              0       -18.0607
            226       -1.07037              0       -18.0607
            227       -1.07037              0       -18.0607
            228       -1.07037              0       -18.0607
            229       -1.07037              0       -18.0607
            230       -1.07037              0       -18.0607
            231       -1.07037              0       -18.0607
            232       -1.07037              0       -18.0607
            233       -1.07037              0       -18.0607
            234       -1.07037              0       -18.0607
            235       -1.07037              0       -18.0607
            236       -1.07037              0       -18.0607
            237       -1.07037              0       -18.0607
            238       -1.07037              0       -18.0607
            239       -1.07037              0       -18.0607
            240       -1.07037              0       -18.0607
            241       -1.07037              0       -18.0607
            242       -1.07037              0       -18.0607
            243       -1.07037              0       -18.0607
            244       -1.07037              0       -18.0607
            245       -1.07037              0       -18.0607
            246       -1.07037              0       -18.0607
            247       -1.07037              0       -18.0607
            248       -1.07037              0       -18.0607
            249       -1.07037              0       -18.0607
            250       -1.07037              0       -18.0607
            251       -1.07037              0       -18.0607
            252       -1.07037              0       -18.0607
            253       -1.07037              0       -18.0607
            254       -1.07037              0       -18.0607
            255       -1.07037              0       -18.0607
            256       -1.07037              0       -18.0607
            257       -1.07037              0       -18.0607
            258       -1.07037              0       -18.0607
            259       -1.07037              0       -18.0607
            260       -1.07037              0       -18.0607
            261       -1.07037              0       -18.0607
            262       -1.07037              0       -18.0607
            263       -1.07037              0       -18.0607
            264       -1.07037              0       -18.0607
            265       -1.07037              0       -18.0607
            266       -1.07037              0       -18.0607
            267       -1.07037              0       -18.0607
            268       -1.07037              0       -18.0607
            269       -1.07037              0       -18.0607
            270       -1.07037              0       -18.0607
            271       -1.07037              0       -18.0607
            272       -1.07037              0       -18.0607
            273       -1.07037              0       -18.0607
            274       -1.07037              0       -18.0607
            275       -1.07037              0       -18.0607
            276       -1.07037              0       -18.0607
            277       -1.07037              0       -18.0607
            278       -1.07037              0       -18.0607
            279       -1.07037              0       -18.0607
            280       -1.07037              0       -18.0607
            281       -1.07037              0       -18.0607
            282       -1.07037              0       -18.0607
            283       -1.07037              0       -18.0607
            284       -1.07037              0       -18.0607
            285       -1.07037              0       -18.0607
            286       -1.07037              0       -18.0607
            287       -1.07037              0       -18.0607
            288       -1.07037              0       -18.0607
            289       -1.07037              0       -18.0607
            290       -1.07037              0       -18.0607
            291       -1.07037              0       -18.0607
            292       -1.07037              0       -18.0607
            293       -1.07037              0       -18.0607
            294       -1.07037              0       -18.0607
            295       -1.07037              0       -18.0607
            296       -1.07037              0       -18.0607
            297       -1.07037              0       -18.0607
            298       -1.07037              0       -18.0607
            299       -1.07037              0       -18.0607
            300       -1.07037              0       -18.0607
            301       -1.07037              0       -18.0607
            302       -1.07037              0       -18.0607
            303       -1.07037              0       -18.0607
            304       -1.07037              0       -18.0607
            305       -1.07037              0       -18.0607
            306       -1.07037              0       -18.0607
            307       -1.07037              0       -18.0607
            308       -1.07037              0       -18.0607
            309       -1.07037              0       -18.0607
            310       -1.07037              0       -18.0607
            311       -1.07037              0       -18.0607
            312       -1.07037              0       -18.0607
            313       -1.07037              0       -18.0607
            314       -1.07037              0       -18.0607
            315       -1.07037              0       -18.0607
            316       -1.07037              0       -18.0607
            317       -1.07037              0       -18.0607
            318       -1.07037              0       -18.0607
            319       -1.07037              0       -18.0607
            320       -1.07037              0       -18.0607
            321       -1.07037              0       -18.0607
            322       -1.07037              0       -18.0607
            323       -1.07037              0       -18.0607
            324       -1.07037              0       -18.0607
            325       -1.07037              0       -18.0607
