seed=1725259037
seed2=245
L=10
nstep=10000
tw=1
Jz=0
eps=5
alpha=0
Sz=0
pbc=0
type=1
beta=10
tau=0.001
Jxy=1
wc=10
ss=1
              1           -0.2              0       -11.3291
              2           -0.3              0       -11.5337
              3           -0.4              0       -11.6013
              4           -0.5              0       -11.8287
              5          -0.56              0       -11.9651
              6          -0.56              0       -11.9651
              7          -0.56              0       -11.9651
              8          -0.56              0       -11.9651
              9          -0.56              0       -11.9651
             10          -0.56              0       -11.9651
             11          -0.56              0       -11.9651
             12          -0.56              0       -11.9651
             13          -0.56              0       -11.9651
             14          -0.56              0       -11.9651
             15          -0.56              0       -11.9651
             16          -0.56              0       -11.9651
             17          -0.56              0       -11.9651
             18          -0.56              0       -11.9651
             19          -0.56              0       -11.9651
             20          -0.56              0       -11.9651
             21          -0.56              0       -11.9651
             22          -0.56              0       -11.9651
             23          -0.56              0       -11.9651
             24          -0.56              0       -11.9651
             25          -0.56              0       -11.9651
             26          -0.56              0       -11.9651
             27          -0.56              0       -11.9651
             28          -0.56              0       -11.9651
             29          -0.56              0       -11.9651
             30          -0.56              0       -11.9651
             31          -0.56              0       -11.9651
             32          -0.56              0       -11.9651
             33          -0.56              0       -11.9651
             34          -0.56              0       -11.9651
             35          -0.56              0       -11.9651
             36          -0.56              0       -11.9651
             37          -0.56              0       -11.9651
             38          -0.56              0       -11.9651
             39          -0.56              0       -11.9651
             40          -0.56              0       -11.9651
             41          -0.56              0       -11.9651
             42          -0.56              0       -11.9651
             43          -0.56              0       -11.9651
             44          -0.56              0       -11.9651
             45          -0.56              0       -11.9651
             46          -0.56              0       -11.9651
             47          -0.56              0       -11.9651
             48          -0.56              0       -11.9651
             49          -0.56              0       -11.9651
             50          -0.56              0       -11.9651
             51          -0.56              0       -11.9651
             52          -0.56              0       -11.9651
             53          -0.56              0       -11.9651
             54          -0.56              0       -11.9651
             55          -0.56              0       -11.9651
             56          -0.56              0       -11.9651
             57          -0.56              0       -11.9651
             58          -0.56              0       -11.9651
             59          -0.56              0       -11.9651
             60          -0.56              0       -11.9651
             61          -0.56              0       -11.9651
             62          -0.56              0       -11.9651
             63          -0.56              0       -11.9651
             64          -0.56              0       -11.9651
             65          -0.56              0       -11.9651
             66          -0.56              0       -11.9651
             67          -0.56              0       -11.9651
             68          -0.56              0       -11.9651
             69          -0.56              0       -11.9651
             70          -0.56              0       -11.9651
             71          -0.56              0       -11.9651
             72          -0.56              0       -11.9651
             73          -0.56              0       -11.9651
             74          -0.56              0       -11.9651
             75          -0.56              0       -11.9651
             76          -0.56              0       -11.9651
             77          -0.56              0       -11.9651
             78          -0.56              0       -11.9651
             79          -0.56              0       -11.9651
             80          -0.56              0       -11.9651
             81          -0.56              0       -11.9651
             82          -0.56              0       -11.9651
             83          -0.56              0       -11.9651
             84          -0.56              0       -11.9651
             85          -0.56              0       -11.9651
             86          -0.56              0       -11.9651
             87          -0.56              0       -11.9651
             88          -0.56              0       -11.9651
             89          -0.56              0       -11.9651
             90          -0.56              0       -11.9651
             91          -0.56              0       -11.9651
             92          -0.56              0       -11.9651
             93          -0.56              0       -11.9651
             94          -0.56              0       -11.9651
             95          -0.56              0       -11.9651
             96          -0.56              0       -11.9651
             97          -0.56              0       -11.9651
             98          -0.56              0       -11.9651
             99          -0.56              0       -11.9651
            100          -0.56              0       -11.9651
            101          -0.56              0       -11.9651
            102          -0.56              0       -11.9651
            103          -0.56              0       -11.9651
            104          -0.56              0       -11.9651
            105          -0.56              0       -11.9651
            106          -0.56              0       -11.9651
            107          -0.56              0       -11.9651
            108          -0.56              0       -11.9651
            109          -0.56              0       -11.9651
            110          -0.56              0       -11.9651
            111          -0.56              0       -11.9651
            112          -0.56              0       -11.9651
            113          -0.56              0       -11.9651
            114          -0.56              0       -11.9651
            115          -0.56              0       -11.9651
            116          -0.56              0       -11.9651
            117          -0.56              0       -11.9651
            118          -0.56              0       -11.9651
            119          -0.56              0       -11.9651
            120          -0.56              0       -11.9651
            121          -0.56              0       -11.9651
            122          -0.56              0       -11.9651
            123          -0.56              0       -11.9651
            124          -0.56              0       -11.9651
            125          -0.56              0       -11.9651
            126          -0.56              0       -11.9651
            127          -0.56              0       -11.9651
            128          -0.56              0       -11.9651
            129          -0.56              0       -11.9651
            130          -0.56              0       -11.9651
            131          -0.56              0       -11.9651
            132          -0.56              0       -11.9651
            133          -0.56              0       -11.9651
            134          -0.56              0       -11.9651
            135          -0.56              0       -11.9651
            136          -0.56              0       -11.9651
            137          -0.56              0       -11.9651
            138          -0.56              0       -11.9651
            139          -0.56              0       -11.9651
            140          -0.56              0       -11.9651
            141          -0.56              0       -11.9651
            142          -0.56              0       -11.9651
            143          -0.56              0       -11.9651
            144          -0.56              0       -11.9651
            145          -0.56              0       -11.9651
            146          -0.56              0       -11.9651
            147          -0.56              0       -11.9651
            148          -0.56              0       -11.9651
            149          -0.56              0       -11.9651
            150          -0.56              0       -11.9651
            151          -0.56              0       -11.9651
            152          -0.56              0       -11.9651
            153          -0.56              0       -11.9651
            154          -0.56              0       -11.9651
            155          -0.56              0       -11.9651
            156          -0.56              0       -11.9651
            157          -0.56              0       -11.9651
            158          -0.56              0       -11.9651
            159          -0.56              0       -11.9651
            160          -0.56              0       -11.9651
            161          -0.56              0       -11.9651
            162          -0.56              0       -11.9651
            163          -0.56              0       -11.9651
            164          -0.56              0       -11.9651
            165          -0.56              0       -11.9651
            166          -0.56              0       -11.9651
            167          -0.56              0       -11.9651
            168          -0.56              0       -11.9651
            169          -0.56              0       -11.9651
            170          -0.56              0       -11.9651
            171          -0.56              0       -11.9651
            172          -0.56              0       -11.9651
            173          -0.56              0       -11.9651
            174          -0.56              0       -11.9651
            175          -0.56              0       -11.9651
            176          -0.56              0       -11.9651
            177          -0.56              0       -11.9651
            178          -0.56              0       -11.9651
            179          -0.56              0       -11.9651
            180          -0.56              0       -11.9651
            181          -0.56              0       -11.9651
            182          -0.56              0       -11.9651
            183          -0.56              0       -11.9651
            184          -0.56              0       -11.9651
            185          -0.56              0       -11.9651
            186          -0.56              0       -11.9651
            187          -0.56              0       -11.9651
            188          -0.56              0       -11.9651
            189          -0.56              0       -11.9651
            190          -0.56              0       -11.9651
            191          -0.56              0       -11.9651
            192          -0.56              0       -11.9651
            193          -0.56              0       -11.9651
            194          -0.56              0       -11.9651
            195          -0.56              0       -11.9651
            196          -0.56              0       -11.9651
            197          -0.56              0       -11.9651
            198          -0.56              0       -11.9651
            199          -0.56              0       -11.9651
            200          -0.56              0       -11.9651
            201          -0.56              0       -11.9651
            202          -0.56              0       -11.9651
            203          -0.56              0       -11.9651
            204          -0.56              0       -11.9651
            205          -0.56              0       -11.9651
            206          -0.56              0       -11.9651
            207          -0.56              0       -11.9651
            208          -0.56              0       -11.9651
            209          -0.56              0       -11.9651
            210          -0.56              0       -11.9651
            211          -0.56              0       -11.9651
            212          -0.56              0       -11.9651
            213          -0.56              0       -11.9651
            214          -0.56              0       -11.9651
            215          -0.56              0       -11.9651
            216          -0.56              0       -11.9651
            217          -0.56              0       -11.9651
            218          -0.56              0       -11.9651
            219          -0.56              0       -11.9651
            220          -0.56              0       -11.9651
            221          -0.56              0       -11.9651
            222          -0.56              0       -11.9651
            223          -0.56              0       -11.9651
            224          -0.56              0       -11.9651
            225          -0.56              0       -11.9651
            226          -0.56              0       -11.9651
            227          -0.56              0       -11.9651
            228          -0.56              0       -11.9651
            229          -0.56              0       -11.9651
            230          -0.56              0       -11.9651
            231          -0.56              0       -11.9651
            232          -0.56              0       -11.9651
            233          -0.56              0       -11.9651
            234          -0.56              0       -11.9651
            235          -0.56              0       -11.9651
            236          -0.56              0       -11.9651
            237          -0.56              0       -11.9651
            238          -0.56              0       -11.9651
            239          -0.56              0       -11.9651
            240          -0.56              0       -11.9651
            241          -0.56              0       -11.9651
            242          -0.56              0       -11.9651
            243          -0.56              0       -11.9651
            244          -0.56              0       -11.9651
            245          -0.56              0       -11.9651
            246          -0.56              0       -11.9651
            247          -0.56              0       -11.9651
            248          -0.56              0       -11.9651
            249          -0.56              0       -11.9651
            250          -0.56              0       -11.9651
            251          -0.56              0       -11.9651
            252          -0.56              0       -11.9651
            253          -0.56              0       -11.9651
            254          -0.56              0       -11.9651
            255          -0.56              0       -11.9651
            256          -0.56              0       -11.9651
            257          -0.56              0       -11.9651
            258          -0.56              0       -11.9651
            259          -0.56              0       -11.9651
            260          -0.56              0       -11.9651
            261          -0.56              0       -11.9651
            262          -0.56              0       -11.9651
            263          -0.56              0       -11.9651
            264          -0.56              0       -11.9651
            265          -0.56              0       -11.9651
            266          -0.56              0       -11.9651
            267          -0.56              0       -11.9651
            268          -0.56              0       -11.9651
            269          -0.56              0       -11.9651
            270          -0.56              0       -11.9651
            271          -0.56              0       -11.9651
            272          -0.56              0       -11.9651
            273          -0.56              0       -11.9651
            274          -0.56              0       -11.9651
            275          -0.56              0       -11.9651
            276          -0.56              0       -11.9651
            277          -0.56              0       -11.9651
            278          -0.56              0       -11.9651
            279          -0.56              0       -11.9651
            280          -0.56              0       -11.9651
            281          -0.56              0       -11.9651
            282          -0.56              0       -11.9651
            283          -0.56              0       -11.9651
            284          -0.56              0       -11.9651
            285          -0.56              0       -11.9651
            286          -0.56              0       -11.9651
            287          -0.56              0       -11.9651
            288          -0.56              0       -11.9651
            289          -0.56              0       -11.9651
            290          -0.56              0       -11.9651
            291          -0.56              0       -11.9651
            292          -0.56              0       -11.9651
            293          -0.56              0       -11.9651
            294          -0.56              0       -11.9651
            295          -0.56              0       -11.9651
            296          -0.56              0       -11.9651
            297          -0.56              0       -11.9651
            298          -0.56              0       -11.9651
            299          -0.56              0       -11.9651
            300          -0.56              0       -11.9651
            301          -0.56              0       -11.9651
            302          -0.56              0       -11.9651
            303          -0.56              0       -11.9651
            304          -0.56              0       -11.9651
            305          -0.56              0       -11.9651
            306          -0.56              0       -11.9651
            307          -0.56              0       -11.9651
            308          -0.56              0       -11.9651
            309          -0.56              0       -11.9651
            310          -0.56              0       -11.9651
            311          -0.56              0       -11.9651
            312          -0.56              0       -11.9651
            313          -0.56              0       -11.9651
            314          -0.56              0       -11.9651
            315          -0.56              0       -11.9651
            316          -0.56              0       -11.9651
            317          -0.56              0       -11.9651
            318          -0.56              0       -11.9651
            319          -0.56              0       -11.9651
            320          -0.56              0       -11.9651
            321          -0.56              0       -11.9651
            322          -0.56              0       -11.9651
            323          -0.56              0       -11.9651
            324          -0.56              0       -11.9651
            325          -0.56              0       -11.9651
