seed=1725278593
seed2=359
L=10
nstep=10000
tw=1
Jz=0
eps=5
alpha=0
Sz=0
pbc=0
type=1
beta=10
tau=0.001
Jxy=1
wc=10
ss=1
              1           -nan           -nan           -nan
              2           -nan           -nan           -nan
              3           -nan           -nan           -nan
              4           -nan           -nan           -nan
              5           -nan           -nan           -nan
              6           -nan           -nan           -nan
              7           -nan           -nan           -nan
              8           -nan           -nan           -nan
              9           -nan           -nan           -nan
             10           -nan           -nan           -nan
             11           -nan           -nan           -nan
             12           -nan           -nan           -nan
             13           -nan           -nan           -nan
             14           -1.8              0       -26.6414
             15           -1.4              0       -27.8784
             16       -1.26667              0       -28.2907
             17           -1.2              0       -28.6059
             18          -1.12              0       -28.8392
             19       -1.03333              0       -29.0045
             20      -0.942857              0       -29.1358
             21         -0.875              0       -29.2707
             22      -0.822222              0       -29.3755
             23          -0.76              0       -29.4668
             24      -0.709091              0       -29.5416
             25      -0.666667              0       -29.6038
             26      -0.646154              0       -29.6542
             27      -0.614286              0       -29.6995
             28      -0.586667              0       -29.7388
             29        -0.5875              0       -29.7883
             30      -0.588235              0        -29.832
             31      -0.588889              0       -29.8708
             32      -0.589474              0       -29.9348
             33          -0.59              0       -29.9925
             34           -0.6              0       -30.0309
             35      -0.618182              0       -30.0574
             36      -0.634783              0       -30.0888
             37          -0.65              0       -30.1175
             38         -0.656              0       -30.1516
             39      -0.661538              0       -30.1831
             40      -0.674074              0       -30.2037
             41      -0.685714              0       -30.2228
             42      -0.696552              0       -30.2465
             43           -0.7              0       -30.2748
             44      -0.696774              0       -30.3038
             45       -0.69375              0        -30.331
             46      -0.690909              0       -30.3566
             47      -0.688235              0       -30.3806
             48      -0.688235              0       -30.3806
             49      -0.688235              0       -30.3806
             50      -0.688235              0       -30.3806
             51      -0.688235              0       -30.3806
             52      -0.688235              0       -30.3806
             53      -0.688235              0       -30.3806
             54      -0.688235              0       -30.3806
             55      -0.688235              0       -30.3806
             56      -0.688235              0       -30.3806
             57      -0.688235              0       -30.3806
             58      -0.688235              0       -30.3806
             59      -0.688235              0       -30.3806
             60      -0.688235              0       -30.3806
             61      -0.688235              0       -30.3806
             62      -0.688235              0       -30.3806
             63      -0.688235              0       -30.3806
             64      -0.688235              0       -30.3806
             65      -0.688235              0       -30.3806
             66      -0.688235              0       -30.3806
             67      -0.688235              0       -30.3806
             68      -0.688235              0       -30.3806
             69      -0.688235              0       -30.3806
             70      -0.688235              0       -30.3806
             71      -0.688235              0       -30.3806
             72      -0.688235              0       -30.3806
             73      -0.688235              0       -30.3806
             74      -0.688235              0       -30.3806
             75      -0.688235              0       -30.3806
             76      -0.688235              0       -30.3806
             77      -0.688235              0       -30.3806
             78      -0.688235              0       -30.3806
             79      -0.688235              0       -30.3806
             80      -0.688235              0       -30.3806
             81      -0.688235              0       -30.3806
             82      -0.688235              0       -30.3806
             83      -0.688235              0       -30.3806
             84      -0.688235              0       -30.3806
             85      -0.688235              0       -30.3806
             86      -0.688235              0       -30.3806
             87      -0.688235              0       -30.3806
             88      -0.688235              0       -30.3806
             89      -0.688235              0       -30.3806
             90      -0.688235              0       -30.3806
             91      -0.688235              0       -30.3806
             92      -0.688235              0       -30.3806
             93      -0.688235              0       -30.3806
             94      -0.688235              0       -30.3806
             95      -0.688235              0       -30.3806
             96      -0.688235              0       -30.3806
             97      -0.688235              0       -30.3806
             98      -0.688235              0       -30.3806
             99      -0.688235              0       -30.3806
            100      -0.688235              0       -30.3806
            101      -0.688235              0       -30.3806
            102      -0.688235              0       -30.3806
            103      -0.688235              0       -30.3806
            104      -0.688235              0       -30.3806
            105      -0.688235              0       -30.3806
            106      -0.688235              0       -30.3806
            107      -0.688235              0       -30.3806
            108      -0.688235              0       -30.3806
            109      -0.688235              0       -30.3806
            110      -0.688235              0       -30.3806
            111      -0.688235              0       -30.3806
            112      -0.688235              0       -30.3806
            113      -0.688235              0       -30.3806
            114      -0.688235              0       -30.3806
            115      -0.688235              0       -30.3806
            116      -0.688235              0       -30.3806
            117      -0.688235              0       -30.3806
            118      -0.688235              0       -30.3806
            119      -0.688235              0       -30.3806
            120      -0.688235              0       -30.3806
            121      -0.688235              0       -30.3806
            122      -0.688235              0       -30.3806
            123      -0.688235              0       -30.3806
            124      -0.688235              0       -30.3806
            125      -0.688235              0       -30.3806
            126      -0.688235              0       -30.3806
            127      -0.688235              0       -30.3806
            128      -0.688235              0       -30.3806
            129      -0.688235              0       -30.3806
            130      -0.688235              0       -30.3806
            131      -0.688235              0       -30.3806
            132      -0.688235              0       -30.3806
            133      -0.688235              0       -30.3806
            134      -0.688235              0       -30.3806
            135      -0.688235              0       -30.3806
            136      -0.688235              0       -30.3806
            137      -0.688235              0       -30.3806
            138      -0.688235              0       -30.3806
            139      -0.688235              0       -30.3806
            140      -0.688235              0       -30.3806
            141      -0.688235              0       -30.3806
            142      -0.688235              0       -30.3806
            143      -0.688235              0       -30.3806
            144      -0.688235              0       -30.3806
            145      -0.688235              0       -30.3806
            146      -0.688235              0       -30.3806
            147      -0.688235              0       -30.3806
            148      -0.688235              0       -30.3806
            149      -0.688235              0       -30.3806
            150      -0.688235              0       -30.3806
            151      -0.688235              0       -30.3806
            152      -0.688235              0       -30.3806
            153      -0.688235              0       -30.3806
            154      -0.688235              0       -30.3806
            155      -0.688235              0       -30.3806
            156      -0.688235              0       -30.3806
            157      -0.688235              0       -30.3806
            158      -0.688235              0       -30.3806
            159      -0.688235              0       -30.3806
            160      -0.688235              0       -30.3806
            161      -0.688235              0       -30.3806
            162      -0.688235              0       -30.3806
            163      -0.688235              0       -30.3806
            164      -0.688235              0       -30.3806
            165      -0.688235              0       -30.3806
            166      -0.688235              0       -30.3806
            167      -0.688235              0       -30.3806
            168      -0.688235              0       -30.3806
            169      -0.688235              0       -30.3806
            170      -0.688235              0       -30.3806
            171      -0.688235              0       -30.3806
            172      -0.688235              0       -30.3806
            173      -0.688235              0       -30.3806
            174      -0.688235              0       -30.3806
            175      -0.688235              0       -30.3806
            176      -0.688235              0       -30.3806
            177      -0.688235              0       -30.3806
            178      -0.688235              0       -30.3806
            179      -0.688235              0       -30.3806
            180      -0.688235              0       -30.3806
            181      -0.688235              0       -30.3806
            182      -0.688235              0       -30.3806
            183      -0.688235              0       -30.3806
            184      -0.688235              0       -30.3806
            185      -0.688235              0       -30.3806
            186      -0.688235              0       -30.3806
            187      -0.688235              0       -30.3806
            188      -0.688235              0       -30.3806
            189      -0.688235              0       -30.3806
            190      -0.688235              0       -30.3806
            191      -0.688235              0       -30.3806
            192      -0.688235              0       -30.3806
            193      -0.688235              0       -30.3806
            194      -0.688235              0       -30.3806
            195      -0.688235              0       -30.3806
            196      -0.688235              0       -30.3806
            197      -0.688235              0       -30.3806
            198      -0.688235              0       -30.3806
            199      -0.688235              0       -30.3806
            200      -0.688235              0       -30.3806
            201      -0.688235              0       -30.3806
            202      -0.688235              0       -30.3806
            203      -0.688235              0       -30.3806
            204      -0.688235              0       -30.3806
            205      -0.688235              0       -30.3806
            206      -0.688235              0       -30.3806
            207      -0.688235              0       -30.3806
            208      -0.688235              0       -30.3806
            209      -0.688235              0       -30.3806
            210      -0.688235              0       -30.3806
            211      -0.688235              0       -30.3806
            212      -0.688235              0       -30.3806
            213      -0.688235              0       -30.3806
            214      -0.688235              0       -30.3806
            215      -0.688235              0       -30.3806
            216      -0.688235              0       -30.3806
            217      -0.688235              0       -30.3806
            218      -0.688235              0       -30.3806
            219      -0.688235              0       -30.3806
            220      -0.688235              0       -30.3806
            221      -0.688235              0       -30.3806
            222      -0.688235              0       -30.3806
            223      -0.688235              0       -30.3806
            224      -0.688235              0       -30.3806
            225      -0.688235              0       -30.3806
            226      -0.688235              0       -30.3806
            227      -0.688235              0       -30.3806
            228      -0.688235              0       -30.3806
            229      -0.688235              0       -30.3806
            230      -0.688235              0       -30.3806
            231      -0.688235              0       -30.3806
            232      -0.688235              0       -30.3806
            233      -0.688235              0       -30.3806
            234      -0.688235              0       -30.3806
            235      -0.688235              0       -30.3806
            236      -0.688235              0       -30.3806
            237      -0.688235              0       -30.3806
            238      -0.688235              0       -30.3806
            239      -0.688235              0       -30.3806
            240      -0.688235              0       -30.3806
            241      -0.688235              0       -30.3806
            242      -0.688235              0       -30.3806
            243      -0.688235              0       -30.3806
            244      -0.688235              0       -30.3806
            245      -0.688235              0       -30.3806
            246      -0.688235              0       -30.3806
            247      -0.688235              0       -30.3806
            248      -0.688235              0       -30.3806
            249      -0.688235              0       -30.3806
            250      -0.688235              0       -30.3806
            251      -0.688235              0       -30.3806
            252      -0.688235              0       -30.3806
            253      -0.688235              0       -30.3806
            254      -0.688235              0       -30.3806
            255      -0.688235              0       -30.3806
            256      -0.688235              0       -30.3806
            257      -0.688235              0       -30.3806
            258      -0.688235              0       -30.3806
            259      -0.688235              0       -30.3806
            260      -0.688235              0       -30.3806
            261      -0.688235              0       -30.3806
            262      -0.688235              0       -30.3806
            263      -0.688235              0       -30.3806
            264      -0.688235              0       -30.3806
            265      -0.688235              0       -30.3806
            266      -0.688235              0       -30.3806
            267      -0.688235              0       -30.3806
            268      -0.688235              0       -30.3806
            269      -0.688235              0       -30.3806
            270      -0.688235              0       -30.3806
            271      -0.688235              0       -30.3806
            272      -0.688235              0       -30.3806
            273      -0.688235              0       -30.3806
            274      -0.688235              0       -30.3806
            275      -0.688235              0       -30.3806
            276      -0.688235              0       -30.3806
            277      -0.688235              0       -30.3806
            278      -0.688235              0       -30.3806
            279      -0.688235              0       -30.3806
            280      -0.688235              0       -30.3806
            281      -0.688235              0       -30.3806
            282      -0.688235              0       -30.3806
            283      -0.688235              0       -30.3806
            284      -0.688235              0       -30.3806
            285      -0.688235              0       -30.3806
            286      -0.688235              0       -30.3806
            287      -0.688235              0       -30.3806
            288      -0.688235              0       -30.3806
            289      -0.688235              0       -30.3806
            290      -0.688235              0       -30.3806
            291      -0.688235              0       -30.3806
            292      -0.688235              0       -30.3806
            293      -0.688235              0       -30.3806
            294      -0.688235              0       -30.3806
            295      -0.688235              0       -30.3806
            296      -0.688235              0       -30.3806
            297      -0.688235              0       -30.3806
            298      -0.688235              0       -30.3806
            299      -0.688235              0       -30.3806
            300      -0.688235              0       -30.3806
            301      -0.688235              0       -30.3806
            302      -0.688235              0       -30.3806
            303      -0.688235              0       -30.3806
            304      -0.688235              0       -30.3806
            305      -0.688235              0       -30.3806
            306      -0.688235              0       -30.3806
            307      -0.688235              0       -30.3806
            308      -0.688235              0       -30.3806
            309      -0.688235              0       -30.3806
            310      -0.688235              0       -30.3806
            311      -0.688235              0       -30.3806
            312      -0.688235              0       -30.3806
            313      -0.688235              0       -30.3806
            314      -0.688235              0       -30.3806
            315      -0.688235              0       -30.3806
            316      -0.688235              0       -30.3806
            317      -0.688235              0       -30.3806
            318      -0.688235              0       -30.3806
            319      -0.688235              0       -30.3806
            320      -0.688235              0       -30.3806
            321      -0.688235              0       -30.3806
            322      -0.688235              0       -30.3806
            323      -0.688235              0       -30.3806
            324      -0.688235              0       -30.3806
            325      -0.688235              0       -30.3806
