seed=1725259037
seed2=235
L=10
nstep=10000
tw=1
Jz=0
eps=5
alpha=0
Sz=0
pbc=0
type=1
beta=10
tau=0.001
Jxy=1
wc=10
ss=1
              1           -0.4              0        -11.749
              2           -0.6              0       -11.9824
              3           -0.8              0       -12.1267
              4          -0.95              0       -12.3872
              5          -1.08              0       -12.5223
              6       -1.16667              0         -12.56
              7           -1.2              0       -12.6244
              8           -1.3              0       -12.6456
              9       -1.33333              0       -12.7232
             10          -1.36              0       -12.7919
             11       -1.36364              0       -12.8552
             12       -1.38333              0        -12.882
             13           -1.4              0       -12.9047
             14           -1.4              0       -12.9206
             15           -1.4              0       -12.9206
             16           -1.4              0       -12.9206
             17           -1.4              0       -12.9206
             18           -1.4              0       -12.9206
             19           -1.4              0       -12.9206
             20           -1.4              0       -12.9206
             21           -1.4              0       -12.9206
             22           -1.4              0       -12.9206
             23           -1.4              0       -12.9206
             24           -1.4              0       -12.9206
             25           -1.4              0       -12.9206
             26           -1.4              0       -12.9206
             27       -1.34667              0       -13.0645
             28         -1.325              0       -13.2358
             29       -1.30588              0       -13.3821
             30       -1.31111              0       -13.5182
             31       -1.31579              0       -13.6529
             32           -1.3              0       -13.8257
             33       -1.29524              0       -14.0506
             34       -1.28182              0       -14.2573
             35       -1.26957              0       -14.4461
             36       -1.25833              0       -14.6227
             37         -1.248              0       -14.7785
             38       -1.23846              0       -14.9224
             39       -1.23704              0       -15.1293
             40       -1.23571              0       -15.3135
             41       -1.22759              0       -15.4961
             42          -1.24              0       -15.6802
             43       -1.25161              0       -15.8541
             44       -1.25625              0       -16.0203
             45       -1.26667              0       -16.1896
             46       -1.25882              0       -16.3565
             47       -1.25143              0       -16.5239
             48          -1.25              0       -16.6778
             49       -1.25405              0       -16.8185
             50       -1.24737              0       -16.9597
             51       -1.23077              0        -17.096
             52       -1.23077              0        -17.096
             53       -1.23077              0        -17.096
             54       -1.23077              0        -17.096
             55       -1.23077              0        -17.096
             56       -1.23077              0        -17.096
             57       -1.23077              0        -17.096
             58       -1.23077              0        -17.096
             59       -1.23077              0        -17.096
             60       -1.23077              0        -17.096
             61       -1.23077              0        -17.096
             62       -1.23077              0        -17.096
             63       -1.23077              0        -17.096
             64       -1.23077              0        -17.096
             65       -1.23077              0        -17.096
             66       -1.23077              0        -17.096
             67       -1.23077              0        -17.096
             68       -1.23077              0        -17.096
             69       -1.23077              0        -17.096
             70       -1.23077              0        -17.096
             71       -1.23077              0        -17.096
             72       -1.23077              0        -17.096
             73       -1.23077              0        -17.096
             74       -1.23077              0        -17.096
             75       -1.23077              0        -17.096
             76       -1.23077              0        -17.096
             77       -1.23077              0        -17.096
             78       -1.23077              0        -17.096
             79       -1.23077              0        -17.096
             80       -1.23077              0        -17.096
             81       -1.23077              0        -17.096
             82       -1.23077              0        -17.096
             83       -1.23077              0        -17.096
             84       -1.23077              0        -17.096
             85       -1.23077              0        -17.096
             86       -1.23077              0        -17.096
             87       -1.23077              0        -17.096
             88       -1.23077              0        -17.096
             89       -1.23077              0        -17.096
             90       -1.23077              0        -17.096
             91       -1.23077              0        -17.096
             92       -1.23077              0        -17.096
             93       -1.23077              0        -17.096
             94       -1.23077              0        -17.096
             95       -1.23077              0        -17.096
             96       -1.23077              0        -17.096
             97       -1.23077              0        -17.096
             98       -1.23077              0        -17.096
             99       -1.23077              0        -17.096
            100       -1.23077              0        -17.096
            101       -1.23077              0        -17.096
            102       -1.23077              0        -17.096
            103       -1.23077              0        -17.096
            104       -1.23077              0        -17.096
            105       -1.23077              0        -17.096
            106       -1.23077              0        -17.096
            107       -1.23077              0        -17.096
            108       -1.23077              0        -17.096
            109       -1.23077              0        -17.096
            110       -1.23077              0        -17.096
            111       -1.23077              0        -17.096
            112       -1.23077              0        -17.096
            113       -1.23077              0        -17.096
            114       -1.23077              0        -17.096
            115       -1.23077              0        -17.096
            116       -1.23077              0        -17.096
            117       -1.23077              0        -17.096
            118       -1.23077              0        -17.096
            119       -1.23077              0        -17.096
            120       -1.23077              0        -17.096
            121       -1.23077              0        -17.096
            122       -1.23077              0        -17.096
            123       -1.23077              0        -17.096
            124       -1.23077              0        -17.096
            125       -1.23077              0        -17.096
            126       -1.23077              0        -17.096
            127       -1.23077              0        -17.096
            128       -1.23077              0        -17.096
            129       -1.23077              0        -17.096
            130       -1.23077              0        -17.096
            131       -1.23077              0        -17.096
            132       -1.23077              0        -17.096
            133       -1.23077              0        -17.096
            134       -1.23077              0        -17.096
            135       -1.23077              0        -17.096
            136       -1.23077              0        -17.096
            137       -1.23077              0        -17.096
            138       -1.23077              0        -17.096
            139       -1.23077              0        -17.096
            140       -1.23077              0        -17.096
            141       -1.23077              0        -17.096
            142       -1.23077              0        -17.096
            143       -1.23077              0        -17.096
            144       -1.23077              0        -17.096
            145       -1.23077              0        -17.096
            146       -1.23077              0        -17.096
            147       -1.23077              0        -17.096
            148       -1.23077              0        -17.096
            149       -1.23077              0        -17.096
            150       -1.23077              0        -17.096
            151       -1.23077              0        -17.096
            152       -1.23077              0        -17.096
            153       -1.23077              0        -17.096
            154       -1.23077              0        -17.096
            155       -1.23077              0        -17.096
            156       -1.23077              0        -17.096
            157       -1.23077              0        -17.096
            158       -1.23077              0        -17.096
            159       -1.23077              0        -17.096
            160       -1.23077              0        -17.096
            161       -1.23077              0        -17.096
            162       -1.23077              0        -17.096
            163       -1.23077              0        -17.096
            164       -1.23077              0        -17.096
            165       -1.23077              0        -17.096
            166       -1.23077              0        -17.096
            167       -1.23077              0        -17.096
            168       -1.23077              0        -17.096
            169       -1.23077              0        -17.096
            170       -1.23077              0        -17.096
            171       -1.23077              0        -17.096
            172       -1.23077              0        -17.096
            173       -1.23077              0        -17.096
            174       -1.23077              0        -17.096
            175       -1.23077              0        -17.096
            176       -1.23077              0        -17.096
            177       -1.23077              0        -17.096
            178       -1.23077              0        -17.096
            179       -1.23077              0        -17.096
            180       -1.23077              0        -17.096
            181       -1.23077              0        -17.096
            182       -1.23077              0        -17.096
            183       -1.23077              0        -17.096
            184       -1.23077              0        -17.096
            185       -1.23077              0        -17.096
            186       -1.23077              0        -17.096
            187       -1.23077              0        -17.096
            188       -1.23077              0        -17.096
            189       -1.23077              0        -17.096
            190       -1.23077              0        -17.096
            191       -1.23077              0        -17.096
            192       -1.23077              0        -17.096
            193       -1.23077              0        -17.096
            194       -1.23077              0        -17.096
            195       -1.23077              0        -17.096
            196       -1.23077              0        -17.096
            197       -1.23077              0        -17.096
            198       -1.23077              0        -17.096
            199       -1.23077              0        -17.096
            200       -1.23077              0        -17.096
            201       -1.23077              0        -17.096
            202       -1.23077              0        -17.096
            203       -1.23077              0        -17.096
            204       -1.23077              0        -17.096
            205       -1.23077              0        -17.096
            206       -1.23077              0        -17.096
            207       -1.23077              0        -17.096
            208       -1.23077              0        -17.096
            209       -1.23077              0        -17.096
            210       -1.23077              0        -17.096
            211       -1.23077              0        -17.096
            212       -1.23077              0        -17.096
            213       -1.23077              0        -17.096
            214       -1.23077              0        -17.096
            215       -1.23077              0        -17.096
            216       -1.23077              0        -17.096
            217       -1.23077              0        -17.096
            218       -1.23077              0        -17.096
            219       -1.23077              0        -17.096
            220       -1.23077              0        -17.096
            221       -1.23077              0        -17.096
            222       -1.23077              0        -17.096
            223       -1.23077              0        -17.096
            224       -1.23077              0        -17.096
            225       -1.23077              0        -17.096
            226       -1.23077              0        -17.096
            227       -1.23077              0        -17.096
            228       -1.23077              0        -17.096
            229       -1.23077              0        -17.096
            230       -1.23077              0        -17.096
            231       -1.23077              0        -17.096
            232       -1.23077              0        -17.096
            233       -1.23077              0        -17.096
            234       -1.23077              0        -17.096
            235       -1.23077              0        -17.096
            236       -1.23077              0        -17.096
            237       -1.23077              0        -17.096
            238       -1.23077              0        -17.096
            239       -1.23077              0        -17.096
            240       -1.23077              0        -17.096
            241       -1.23077              0        -17.096
            242       -1.23077              0        -17.096
            243       -1.23077              0        -17.096
            244       -1.23077              0        -17.096
            245       -1.23077              0        -17.096
            246       -1.23077              0        -17.096
            247       -1.23077              0        -17.096
            248       -1.23077              0        -17.096
            249       -1.23077              0        -17.096
            250       -1.23077              0        -17.096
            251       -1.23077              0        -17.096
            252       -1.23077              0        -17.096
            253       -1.23077              0        -17.096
            254       -1.23077              0        -17.096
            255       -1.23077              0        -17.096
            256       -1.23077              0        -17.096
            257       -1.23077              0        -17.096
            258       -1.23077              0        -17.096
            259       -1.23077              0        -17.096
            260       -1.23077              0        -17.096
            261       -1.23077              0        -17.096
            262       -1.23077              0        -17.096
            263       -1.23077              0        -17.096
            264       -1.23077              0        -17.096
            265       -1.23077              0        -17.096
            266       -1.23077              0        -17.096
            267       -1.23077              0        -17.096
            268       -1.23077              0        -17.096
            269       -1.23077              0        -17.096
            270       -1.23077              0        -17.096
            271       -1.23077              0        -17.096
            272       -1.23077              0        -17.096
            273       -1.23077              0        -17.096
            274       -1.23077              0        -17.096
            275       -1.23077              0        -17.096
            276       -1.23077              0        -17.096
            277       -1.23077              0        -17.096
            278       -1.23077              0        -17.096
            279       -1.23077              0        -17.096
            280       -1.23077              0        -17.096
            281       -1.23077              0        -17.096
            282       -1.23077              0        -17.096
            283       -1.23077              0        -17.096
            284       -1.23077              0        -17.096
            285       -1.23077              0        -17.096
            286       -1.23077              0        -17.096
            287       -1.23077              0        -17.096
            288       -1.23077              0        -17.096
            289       -1.23077              0        -17.096
            290       -1.23077              0        -17.096
            291       -1.23077              0        -17.096
            292       -1.23077              0        -17.096
            293       -1.23077              0        -17.096
            294       -1.23077              0        -17.096
            295       -1.23077              0        -17.096
            296       -1.23077              0        -17.096
            297       -1.23077              0        -17.096
            298       -1.23077              0        -17.096
            299       -1.23077              0        -17.096
            300       -1.23077              0        -17.096
            301       -1.23077              0        -17.096
            302       -1.23077              0        -17.096
            303       -1.23077              0        -17.096
            304       -1.23077              0        -17.096
            305       -1.23077              0        -17.096
            306       -1.23077              0        -17.096
            307       -1.23077              0        -17.096
            308       -1.23077              0        -17.096
            309       -1.23077              0        -17.096
            310       -1.23077              0        -17.096
            311       -1.23077              0        -17.096
            312       -1.23077              0        -17.096
            313       -1.23077              0        -17.096
            314       -1.23077              0        -17.096
            315       -1.23077              0        -17.096
            316       -1.23077              0        -17.096
            317       -1.23077              0        -17.096
            318       -1.23077              0        -17.096
            319       -1.23077              0        -17.096
            320       -1.23077              0        -17.096
            321       -1.23077              0        -17.096
            322       -1.23077              0        -17.096
            323       -1.23077              0        -17.096
            324       -1.23077              0        -17.096
            325       -1.23077              0        -17.096
