seed=1725239196
seed2=133
L=10
nstep=10000
tw=1
Jz=0
eps=5
alpha=0
Sz=0
pbc=0
type=1
beta=10
tau=0.001
Jxy=1
wc=10
ss=1
              1           -0.2              0       -16.0208
              2           -0.5              0       -16.2897
              3      -0.666667              0       -16.3495
              4          -0.85              0       -16.3323
              5          -0.92              0       -16.4239
              6             -1              0       -16.4982
              7       -1.05714              0       -16.5572
              8           -1.1              0       -16.6015
              9       -1.11111              0       -16.6392
             10          -1.16              0       -16.6642
             11           -1.2              0       -16.6799
             12       -1.23333              0       -16.6943
             13       -1.26154              0       -16.7022
             14       -1.27143              0       -16.7012
             15       -1.29333              0       -16.6744
             16         -1.325              0       -16.6324
             17       -1.35294              0       -16.5818
             18       -1.35556              0       -16.5521
             19       -1.36842              0        -16.522
             20          -1.39              0        -16.494
             21       -1.40952              0       -16.4656
             22       -1.42727              0       -16.4415
             23       -1.43478              0       -16.4203
             24       -1.43333              0        -16.402
             25         -1.448              0       -16.3823
             26       -1.46154              0       -16.3729
             27       -1.46667              0       -16.3673
             28       -1.47143              0       -16.3592
             29       -1.48276              0       -16.3537
             30       -1.48667              0       -16.3466
             31       -1.49677              0       -16.3422
             32           -1.5              0       -16.3378
             33       -1.50303              0       -16.3338
             34       -1.49412              0       -16.3274
             35       -1.48571              0       -16.3216
             36       -1.47778              0       -16.3166
             37       -1.46486              0       -16.3111
             38       -1.45263              0       -16.3059
             39       -1.45128              0       -16.3046
             40         -1.445              0       -16.3075
             41        -1.4439              0       -16.3049
             42       -1.44286              0        -16.302
             43       -1.44651              0       -16.3039
             44       -1.45455              0       -16.2971
             45       -1.45333              0       -16.2984
             46       -1.46087              0        -16.308
             47       -1.46383              0       -16.3178
             48       -1.47083              0       -16.3261
             49       -1.47347              0       -16.3377
             50          -1.48              0       -16.3483
             51        -1.4902              0       -16.3541
             52       -1.49615              0       -16.3605
             53       -1.49057              0       -16.3651
             54       -1.48519              0       -16.3669
             55       -1.47636              0       -16.3683
             56       -1.46786              0       -16.3722
             57       -1.45965              0       -16.3811
             58       -1.45172              0       -16.3897
             59       -1.44407              0       -16.3957
             60       -1.44333              0       -16.4028
             61       -1.43607              0       -16.4073
             62       -1.42581              0       -16.4131
             63        -1.4127              0       -16.4189
             64       -1.39687              0       -16.4272
             65       -1.38462              0        -16.435
             66       -1.38462              0        -16.435
             67       -1.38462              0        -16.435
             68       -1.38462              0        -16.435
             69       -1.38462              0        -16.435
             70       -1.38462              0        -16.435
             71       -1.38462              0        -16.435
             72       -1.38462              0        -16.435
             73       -1.38462              0        -16.435
             74       -1.38462              0        -16.435
             75       -1.38462              0        -16.435
             76       -1.38462              0        -16.435
             77       -1.38462              0        -16.435
             78       -1.38462              0        -16.435
             79       -1.38462              0        -16.435
             80       -1.38462              0        -16.435
             81       -1.38462              0        -16.435
             82       -1.38462              0        -16.435
             83       -1.38462              0        -16.435
             84       -1.38462              0        -16.435
             85       -1.38462              0        -16.435
             86       -1.38462              0        -16.435
             87       -1.38462              0        -16.435
             88       -1.38462              0        -16.435
             89       -1.38462              0        -16.435
             90       -1.38462              0        -16.435
             91       -1.38462              0        -16.435
             92       -1.38462              0        -16.435
             93       -1.38462              0        -16.435
             94       -1.38462              0        -16.435
             95       -1.38462              0        -16.435
             96       -1.38462              0        -16.435
             97       -1.38462              0        -16.435
             98       -1.38462              0        -16.435
             99       -1.38462              0        -16.435
            100       -1.38462              0        -16.435
            101       -1.38462              0        -16.435
            102       -1.38462              0        -16.435
            103       -1.38462              0        -16.435
            104       -1.38462              0        -16.435
            105       -1.38462              0        -16.435
            106       -1.38462              0        -16.435
            107       -1.38462              0        -16.435
            108       -1.38462              0        -16.435
            109       -1.38462              0        -16.435
            110       -1.38462              0        -16.435
            111       -1.38462              0        -16.435
            112       -1.38462              0        -16.435
            113       -1.38462              0        -16.435
            114       -1.38462              0        -16.435
            115       -1.38462              0        -16.435
            116       -1.38462              0        -16.435
            117       -1.38462              0        -16.435
            118       -1.38462              0        -16.435
            119       -1.38462              0        -16.435
            120       -1.38462              0        -16.435
            121       -1.38462              0        -16.435
            122       -1.38462              0        -16.435
            123       -1.38462              0        -16.435
            124       -1.38462              0        -16.435
            125       -1.38462              0        -16.435
            126       -1.38462              0        -16.435
            127       -1.38462              0        -16.435
            128       -1.38462              0        -16.435
            129       -1.38462              0        -16.435
            130       -1.38462              0        -16.435
            131       -1.38462              0        -16.435
            132       -1.38462              0        -16.435
            133       -1.38462              0        -16.435
            134       -1.38462              0        -16.435
            135       -1.38462              0        -16.435
            136       -1.38462              0        -16.435
            137       -1.38462              0        -16.435
            138       -1.38462              0        -16.435
            139       -1.38462              0        -16.435
            140       -1.38462              0        -16.435
            141       -1.38462              0        -16.435
            142       -1.38462              0        -16.435
            143       -1.38462              0        -16.435
            144       -1.38462              0        -16.435
            145       -1.38462              0        -16.435
            146       -1.38462              0        -16.435
            147       -1.38462              0        -16.435
            148       -1.38462              0        -16.435
            149       -1.38462              0        -16.435
            150       -1.38462              0        -16.435
            151       -1.38462              0        -16.435
            152       -1.38462              0        -16.435
            153       -1.38462              0        -16.435
            154       -1.38462              0        -16.435
            155       -1.38462              0        -16.435
            156       -1.38462              0        -16.435
            157       -1.38462              0        -16.435
            158       -1.38462              0        -16.435
            159       -1.38462              0        -16.435
            160       -1.38462              0        -16.435
            161       -1.38462              0        -16.435
            162       -1.38462              0        -16.435
            163       -1.38462              0        -16.435
            164       -1.38462              0        -16.435
            165       -1.38462              0        -16.435
            166       -1.38462              0        -16.435
            167       -1.38462              0        -16.435
            168       -1.38462              0        -16.435
            169       -1.38462              0        -16.435
            170       -1.38462              0        -16.435
            171       -1.38462              0        -16.435
            172       -1.38462              0        -16.435
            173       -1.38462              0        -16.435
            174       -1.38462              0        -16.435
            175       -1.38462              0        -16.435
            176       -1.38462              0        -16.435
            177       -1.38462              0        -16.435
            178       -1.38462              0        -16.435
            179       -1.38462              0        -16.435
            180       -1.38462              0        -16.435
            181       -1.38462              0        -16.435
            182       -1.38462              0        -16.435
            183       -1.38462              0        -16.435
            184       -1.38462              0        -16.435
            185       -1.38462              0        -16.435
            186       -1.38462              0        -16.435
            187       -1.38462              0        -16.435
            188       -1.38462              0        -16.435
            189       -1.38462              0        -16.435
            190       -1.38462              0        -16.435
            191       -1.38462              0        -16.435
            192       -1.38462              0        -16.435
            193       -1.38462              0        -16.435
            194       -1.38462              0        -16.435
            195       -1.38462              0        -16.435
            196       -1.38462              0        -16.435
            197       -1.38462              0        -16.435
            198       -1.38462              0        -16.435
            199       -1.38462              0        -16.435
            200       -1.38462              0        -16.435
            201       -1.38462              0        -16.435
            202       -1.38462              0        -16.435
            203       -1.38462              0        -16.435
            204       -1.38462              0        -16.435
            205       -1.38462              0        -16.435
            206       -1.38462              0        -16.435
            207       -1.38462              0        -16.435
            208       -1.38462              0        -16.435
            209       -1.38462              0        -16.435
            210       -1.38462              0        -16.435
            211       -1.38462              0        -16.435
            212       -1.38462              0        -16.435
            213       -1.38462              0        -16.435
            214       -1.38462              0        -16.435
            215       -1.38462              0        -16.435
            216       -1.38462              0        -16.435
            217       -1.38462              0        -16.435
            218       -1.38462              0        -16.435
            219       -1.38462              0        -16.435
            220       -1.38462              0        -16.435
            221       -1.38462              0        -16.435
            222       -1.38462              0        -16.435
            223       -1.38462              0        -16.435
            224       -1.38462              0        -16.435
            225       -1.38462              0        -16.435
            226       -1.38462              0        -16.435
            227       -1.38462              0        -16.435
            228       -1.38462              0        -16.435
            229       -1.38462              0        -16.435
            230       -1.38462              0        -16.435
            231       -1.38462              0        -16.435
            232       -1.38462              0        -16.435
            233       -1.38462              0        -16.435
            234       -1.38462              0        -16.435
            235       -1.38462              0        -16.435
            236       -1.38462              0        -16.435
            237       -1.38462              0        -16.435
            238       -1.38462              0        -16.435
            239       -1.38462              0        -16.435
            240       -1.38462              0        -16.435
            241       -1.38462              0        -16.435
            242       -1.38462              0        -16.435
            243       -1.38462              0        -16.435
            244       -1.38462              0        -16.435
            245       -1.38462              0        -16.435
            246       -1.38462              0        -16.435
            247       -1.38462              0        -16.435
            248       -1.38462              0        -16.435
            249       -1.38462              0        -16.435
            250       -1.38462              0        -16.435
            251       -1.38462              0        -16.435
            252       -1.38462              0        -16.435
            253       -1.38462              0        -16.435
            254       -1.38462              0        -16.435
            255       -1.38462              0        -16.435
            256       -1.38462              0        -16.435
            257       -1.38462              0        -16.435
            258       -1.38462              0        -16.435
            259       -1.38462              0        -16.435
            260       -1.38462              0        -16.435
            261       -1.38462              0        -16.435
            262       -1.38462              0        -16.435
            263       -1.38462              0        -16.435
            264       -1.38462              0        -16.435
            265       -1.38462              0        -16.435
            266       -1.38462              0        -16.435
            267       -1.38462              0        -16.435
            268       -1.38462              0        -16.435
            269       -1.38462              0        -16.435
            270       -1.38462              0        -16.435
            271       -1.38462              0        -16.435
            272       -1.38462              0        -16.435
            273       -1.38462              0        -16.435
            274       -1.38462              0        -16.435
            275       -1.38462              0        -16.435
            276       -1.38462              0        -16.435
            277       -1.38462              0        -16.435
            278       -1.38462              0        -16.435
            279       -1.38462              0        -16.435
            280       -1.38462              0        -16.435
            281       -1.38462              0        -16.435
            282       -1.38462              0        -16.435
            283       -1.38462              0        -16.435
            284       -1.38462              0        -16.435
            285       -1.38462              0        -16.435
            286       -1.38462              0        -16.435
            287       -1.38462              0        -16.435
            288       -1.38462              0        -16.435
            289       -1.38462              0        -16.435
            290       -1.38462              0        -16.435
            291       -1.38462              0        -16.435
            292       -1.38462              0        -16.435
            293       -1.38462              0        -16.435
            294       -1.38462              0        -16.435
            295       -1.38462              0        -16.435
            296       -1.38462              0        -16.435
            297       -1.38462              0        -16.435
            298       -1.38462              0        -16.435
            299       -1.38462              0        -16.435
            300       -1.38462              0        -16.435
            301       -1.38462              0        -16.435
            302       -1.38462              0        -16.435
            303       -1.38462              0        -16.435
            304       -1.38462              0        -16.435
            305       -1.38462              0        -16.435
            306       -1.38462              0        -16.435
            307       -1.38462              0        -16.435
            308       -1.38462              0        -16.435
            309       -1.38462              0        -16.435
            310       -1.38462              0        -16.435
            311       -1.38462              0        -16.435
            312       -1.38462              0        -16.435
            313       -1.38462              0        -16.435
            314       -1.38462              0        -16.435
            315       -1.38462              0        -16.435
            316       -1.38462              0        -16.435
            317       -1.38462              0        -16.435
            318       -1.38462              0        -16.435
            319       -1.38462              0        -16.435
            320       -1.38462              0        -16.435
            321       -1.38462              0        -16.435
            322       -1.38462              0        -16.435
            323       -1.38462              0        -16.435
            324       -1.38462              0        -16.435
            325       -1.38462              0        -16.435
