seed=1725278593
seed2=286
L=10
nstep=10000
tw=1
Jz=0
eps=5
alpha=0
Sz=0
pbc=0
type=1
beta=10
tau=0.001
Jxy=1
wc=10
ss=1
              1           -0.2              0       -15.7157
              2           -0.4              0       -16.0036
              3      -0.533333              0       -16.0975
              4           -0.7              0       -16.0684
              5          -0.76              0       -16.1198
              6           -0.8              0       -16.1541
              7      -0.828571              0       -16.2163
              8         -0.875              0       -16.3252
              9      -0.888889              0       -16.4275
             10          -0.92              0       -16.6037
             11      -0.981818              0       -16.7282
             12       -1.03333              0        -16.832
             13       -1.07692              0       -16.9191
             14       -1.08571              0       -16.9994
             15       -1.06667              0       -17.0739
             16          -1.05              0       -17.1502
             17       -1.03529              0       -17.2175
             18       -1.02222              0       -17.2773
             19       -1.01053              0       -17.3307
             20             -1              0       -17.3788
             21      -0.990476              0       -17.4224
             22      -0.981818              0       -17.4663
             23             -1              0       -17.4891
             24       -1.01667              0         -17.51
             25         -1.032              0       -17.5292
             26       -1.04615              0       -17.5483
             27       -1.05185              0       -17.5662
             28       -1.05714              0       -17.5829
             29       -1.06207              0       -17.5997
             30       -1.07333              0       -17.6176
             31       -1.08387              0       -17.6345
             32       -1.09375              0       -17.6503
             33       -1.10909              0       -17.6599
             34       -1.12353              0       -17.6688
             35       -1.13714              0       -17.6752
             36       -1.14444              0       -17.6862
             37       -1.12973              0       -17.7449
             38       -1.12105              0       -17.7998
             39       -1.11795              0       -17.8445
             40         -1.115              0        -17.887
             41       -1.10732              0       -17.9267
             42       -1.09524              0       -17.9733
             43       -1.09524              0       -17.9733
             44       -1.09524              0       -17.9733
             45       -1.09524              0       -17.9733
             46       -1.09524              0       -17.9733
             47       -1.09524              0       -17.9733
             48       -1.09524              0       -17.9733
             49       -1.09524              0       -17.9733
             50       -1.09524              0       -17.9733
             51       -1.09524              0       -17.9733
             52       -1.09524              0       -17.9733
             53       -1.09524              0       -17.9733
             54       -1.09524              0       -17.9733
             55       -1.09524              0       -17.9733
             56       -1.09524              0       -17.9733
             57       -1.09524              0       -17.9733
             58       -1.09524              0       -17.9733
             59       -1.09524              0       -17.9733
             60       -1.09524              0       -17.9733
             61       -1.09524              0       -17.9733
             62       -1.09524              0       -17.9733
             63       -1.09524              0       -17.9733
             64       -1.09524              0       -17.9733
             65       -1.07907              0       -18.1097
             66       -1.06364              0       -18.2408
             67       -1.05333              0       -18.3635
             68       -1.03913              0        -18.485
             69       -1.02553              0       -18.6012
             70        -1.0125              0        -18.712
             71             -1              0       -18.8167
             72         -0.988              0       -18.9171
             73      -0.976471              0       -19.0136
             74      -0.965385              0       -19.1065
             75      -0.954717              0        -19.196
             76      -0.944444              0       -19.2823
             77      -0.934545              0       -19.3654
             78      -0.928571              0       -19.4438
             79      -0.922807              0       -19.5155
             80      -0.917241              0       -19.5846
             81      -0.911864              0       -19.6514
             82      -0.906667              0       -19.7216
             83      -0.901639              0       -19.7896
             84      -0.893548              0       -19.8561
             85      -0.885714              0       -19.9205
             86       -0.88125              0       -19.9807
             87      -0.873846              0       -20.0371
             88      -0.866667              0       -20.0918
             89      -0.859701              0       -20.1487
             90      -0.855882              0       -20.1996
             91      -0.855072              0       -20.2482
             92      -0.851429              0       -20.2963
             93       -0.84507              0        -20.345
             94      -0.836111              0        -20.393
             95      -0.827397              0       -20.4396
             96      -0.818919              0       -20.4849
             97         -0.808              0       -20.5328
             98      -0.797368              0       -20.5795
             99      -0.787013              0        -20.625
            100      -0.776923              0       -20.6693
            101       -0.76962              0       -20.7119
            102        -0.7625              0       -20.7535
            103      -0.758025              0       -20.7937
            104      -0.758537              0       -20.8291
            105      -0.756627              0       -20.8662
            106      -0.754762              0       -20.8985
            107      -0.750588              0        -20.931
            108      -0.746512              0       -20.9651
            109      -0.742529              0       -20.9985
            110      -0.740909              0       -21.0303
            111      -0.739326              0       -21.0612
            112      -0.737778              0       -21.0934
            113      -0.736264              0       -21.1237
            114      -0.732609              0       -21.1547
            115      -0.726882              0       -21.1854
            116      -0.725532              0       -21.2114
            117      -0.724211              0       -21.2399
            118      -0.722917              0       -21.2678
            119      -0.719588              0       -21.2955
            120      -0.716327              0       -21.3227
            121      -0.713131              0       -21.3493
            122          -0.71              0       -21.3754
            123      -0.708911              0       -21.3991
            124      -0.707843              0       -21.4224
            125      -0.704854              0       -21.4458
            126           -0.7              0       -21.4694
            127      -0.695238              0       -21.4926
            128      -0.690566              0       -21.5161
            129      -0.684112              0       -21.5401
            130       -0.67963              0       -21.5633
            131      -0.675229              0       -21.5861
            132      -0.670909              0       -21.6085
            133      -0.666667              0       -21.6304
            134        -0.6625              0        -21.652
            135      -0.658407              0       -21.6732
            136      -0.654386              0        -21.694
            137      -0.650435              0       -21.7145
            138      -0.646552              0       -21.7346
            139      -0.644444              0       -21.7522
            140      -0.642373              0       -21.7694
            141      -0.642017              0       -21.7862
            142      -0.641667              0       -21.8027
            143      -0.642975              0       -21.8183
            144      -0.642623              0       -21.8339
            145      -0.642276              0       -21.8493
            146      -0.641935              0       -21.8644
            147        -0.6416              0       -21.8782
            148      -0.642857              0       -21.8913
            149       -0.64252              0       -21.9052
            150      -0.640625              0       -21.9193
            151       -0.63876              0       -21.9333
            152      -0.636923              0       -21.9481
            153      -0.633588              0       -21.9635
            154      -0.631818              0       -21.9785
            155      -0.630075              0       -21.9933
            156      -0.626866              0       -22.0087
            157      -0.623704              0       -22.0238
            158      -0.620588              0       -22.0387
            159      -0.617518              0       -22.0534
            160      -0.614493              0       -22.0679
            161      -0.611511              0       -22.0822
            162      -0.608571              0       -22.0962
            163      -0.605674              0       -22.1101
            164      -0.602817              0       -22.1238
            165           -0.6              0       -22.1372
            166      -0.597222              0       -22.1506
            167      -0.594483              0       -22.1637
            168      -0.591781              0       -22.1766
            169      -0.589116              0       -22.1894
            170      -0.586486              0        -22.202
            171      -0.583893              0       -22.2145
            172      -0.582667              0       -22.2267
            173      -0.581457              0       -22.2387
            174      -0.580263              0       -22.2506
            175      -0.579085              0       -22.2624
            176      -0.575325              0       -22.2742
            177      -0.571613              0       -22.2858
            178      -0.569231              0        -22.297
            179      -0.566879              0        -22.308
            180      -0.563291              0       -22.3192
            181      -0.561006              0         -22.33
            182       -0.55875              0       -22.3406
            183      -0.557764              0        -22.351
            184       -0.55679              0       -22.3611
            185      -0.554601              0       -22.3715
            186      -0.552439              0       -22.3817
            187      -0.550303              0       -22.3917
            188      -0.548193              0       -22.4017
            189      -0.546108              0       -22.4115
            190      -0.544048              0       -22.4212
            191      -0.542012              0       -22.4308
            192          -0.54              0       -22.4403
            193      -0.538012              0       -22.4497
            194      -0.536047              0       -22.4589
            195       -0.53526              0       -22.4679
            196      -0.534483              0       -22.4768
            197      -0.534857              0       -22.4855
            198      -0.536364              0       -22.4937
            199      -0.536723              0          -22.5
            200      -0.537079              0       -22.5074
            201      -0.536313              0       -22.5143
            202      -0.536667              0       -22.5208
            203      -0.537017              0       -22.5278
            204      -0.538462              0       -22.5332
            205      -0.539891              0       -22.5385
            206      -0.540217              0       -22.5461
            207      -0.540541              0       -22.5536
            208      -0.539785              0       -22.5615
            209      -0.537968              0       -22.5693
            210       -0.53617              0        -22.577
            211      -0.533333              0        -22.585
            212      -0.530526              0       -22.5928
            213      -0.529843              0       -22.5992
            214      -0.529167              0       -22.6056
            215      -0.527461              0       -22.6126
            216      -0.525773              0       -22.6194
            217      -0.526154              0       -22.6253
            218       -0.52449              0        -22.632
            219      -0.522843              0       -22.6387
            220      -0.521212              0       -22.6453
            221      -0.518593              0       -22.6525
            222         -0.516              0       -22.6597
            223      -0.514428              0       -22.6664
            224      -0.512871              0       -22.6731
            225      -0.510345              0       -22.6801
            226      -0.507843              0       -22.6869
            227      -0.505366              0       -22.6937
            228      -0.502913              0       -22.7005
            229      -0.502415              0       -22.7063
            230      -0.502885              0       -22.7108
            231      -0.503349              0       -22.7153
            232       -0.50381              0       -22.7197
            233      -0.504265              0       -22.7234
            234      -0.504717              0        -22.727
            235      -0.505164              0       -22.7306
            236      -0.505607              0        -22.733
            237      -0.506047              0       -22.7354
            238      -0.505556              0       -22.7384
            239      -0.505069              0       -22.7414
            240      -0.505505              0       -22.7446
            241      -0.505936              0       -22.7477
            242      -0.507273              0       -22.7512
            243      -0.507692              0       -22.7555
            244      -0.508108              0       -22.7598
            245      -0.507623              0       -22.7646
            246       -0.50625              0       -22.7701
            247      -0.504889              0       -22.7755
            248       -0.50354              0       -22.7808
            249      -0.502203              0       -22.7861
            250      -0.500877              0       -22.7913
            251      -0.500437              0       -22.7962
            252       -0.49913              0       -22.8014
            253      -0.497835              0       -22.8065
            254      -0.496552              0       -22.8115
            255      -0.495279              0       -22.8166
            256      -0.495726              0       -22.8183
            257      -0.495319              0       -22.8207
            258      -0.494068              0       -22.8256
            259      -0.493671              0       -22.8304
            260      -0.493277              0       -22.8352
            261      -0.492887              0       -22.8397
            262        -0.4925              0       -22.8443
            263      -0.492946              0       -22.8486
            264      -0.493388              0        -22.853
            265      -0.493004              0       -22.8575
            266      -0.492623              0       -22.8619
            267      -0.492245              0       -22.8663
            268      -0.491057              0       -22.8711
            269      -0.489879              0       -22.8759
            270       -0.48871              0       -22.8807
            271      -0.486747              0       -22.8855
            272        -0.4848              0       -22.8902
            273      -0.482869              0        -22.895
            274      -0.481746              0       -22.8995
            275      -0.480632              0       -22.9039
            276      -0.480315              0       -22.9082
            277      -0.479216              0       -22.9126
            278      -0.478125              0       -22.9169
            279      -0.477043              0       -22.9212
            280      -0.475969              0       -22.9255
            281      -0.474903              0       -22.9297
            282      -0.473846              0        -22.934
            283      -0.472797              0       -22.9381
            284      -0.471756              0       -22.9424
            285      -0.470722              0       -22.9467
            286      -0.470455              0       -22.9503
            287      -0.470943              0       -22.9536
            288      -0.471429              0       -22.9569
            289       -0.47191              0       -22.9602
            290      -0.472388              0       -22.9633
            291      -0.472862              0       -22.9663
            292      -0.473333              0       -22.9693
            293      -0.473063              0       -22.9731
            294      -0.472794              0       -22.9763
            295      -0.471795              0       -22.9798
            296      -0.470803              0       -22.9833
            297      -0.470545              0       -22.9863
            298      -0.469565              0       -22.9897
            299       -0.46787              0       -22.9937
            300      -0.466906              0       -22.9974
            301       -0.46595              0        -23.001
            302      -0.465714              0       -23.0043
            303       -0.46548              0       -23.0075
            304      -0.464539              0       -23.0111
            305      -0.462898              0       -23.0149
            306      -0.461268              0       -23.0186
            307      -0.459649              0       -23.0224
            308      -0.458042              0       -23.0261
            309      -0.456446              0       -23.0297
            310      -0.454861              0       -23.0334
            311      -0.453287              0        -23.037
            312      -0.451724              0       -23.0406
            313      -0.450172              0       -23.0442
            314       -0.44863              0       -23.0477
            315      -0.447782              0       -23.0511
            316      -0.446939              0       -23.0544
            317       -0.44678              0       -23.0576
            318      -0.445946              0       -23.0609
            319      -0.444444              0       -23.0643
            320      -0.442953              0       -23.0677
            321      -0.441472              0       -23.0711
            322      -0.440667              0       -23.0744
            323      -0.439867              0       -23.0777
            324      -0.439073              0        -23.081
            325      -0.438284              0       -23.0843
