seed=1725259037
seed2=69
L=10
nstep=10000
tw=1
Jz=0
eps=5
alpha=0
Sz=0
pbc=0
type=1
beta=10
tau=0.001
Jxy=1
wc=10
ss=1
              1           -0.4              0       -15.0109
              2           -0.5              0       -15.0151
              3           -0.6              0       -15.0734
              4           -0.7              0       -15.0189
              5          -0.72              0       -15.5979
              6      -0.766667              0       -16.0371
              7      -0.771429              0       -16.3495
              8         -0.775              0       -16.5838
              9           -0.8              0       -16.8114
             10          -0.82              0       -16.9817
             11           -0.8              0       -17.4672
             12      -0.783333              0       -17.8717
             13      -0.753846              0       -18.2213
             14      -0.728571              0        -18.521
             15      -0.693333              0       -18.7883
             16        -0.6625              0       -19.0221
             17      -0.635294              0       -19.2285
             18      -0.611111              0       -19.4119
             19      -0.589474              0        -19.576
             20          -0.57              0       -19.7237
             21      -0.552381              0       -19.8573
             22      -0.536364              0       -19.9788
             23      -0.521739              0       -20.0897
             24      -0.508333              0       -20.1914
             25         -0.496              0       -20.2849
             26      -0.484615              0       -20.3713
             27      -0.474074              0       -20.4512
             28      -0.457143              0       -20.5301
             29      -0.455172              0       -20.5946
             30      -0.453333              0       -20.6548
             31      -0.451613              0       -20.7111
             32       -0.45625              0       -20.7641
             33      -0.460606              0       -20.8146
             34      -0.464706              0       -20.8621
             35      -0.457143              0        -20.911
             36          -0.45              0       -20.9572
             37      -0.443243              0       -21.0009
             38      -0.436842              0       -21.0427
             39      -0.430769              0       -21.0824
             40          -0.43              0       -21.1103
             41      -0.434146              0       -21.1359
             42      -0.442857              0       -21.1543
             43      -0.446512              0       -21.1802
             44          -0.45              0       -21.2049
             45      -0.453333              0       -21.2286
             46      -0.452174              0       -21.2528
             47      -0.451064              0        -21.276
             48      -0.445833              0       -21.3017
             49      -0.440816              0       -21.3263
             50         -0.436              0         -21.35
             51      -0.431373              0       -21.3727
             52      -0.430769              0       -21.3939
             53      -0.430189              0       -21.4161
             54      -0.425926              0       -21.4383
             55      -0.418182              0       -21.4605
             56      -0.414286              0       -21.4816
             57      -0.414035              0       -21.5019
             58      -0.417241              0       -21.5202
             59      -0.420339              0       -21.5378
             60      -0.423333              0       -21.5548
             61      -0.422951              0       -21.5669
             62      -0.422581              0       -21.5786
             63      -0.422222              0       -21.5953
             64      -0.421875              0       -21.6098
             65      -0.418462              0       -21.6241
             66      -0.415152              0       -21.6378
             67      -0.408955              0       -21.6531
             68      -0.402941              0       -21.6679
             69           -0.4              0       -21.6815
             70      -0.394286              0       -21.6955
             71      -0.388732              0       -21.7091
             72      -0.386111              0       -21.7217
             73      -0.386301              0       -21.7338
             74      -0.389189              0       -21.7452
             75         -0.392              0       -21.7563
             76      -0.394737              0       -21.7671
             77      -0.394805              0       -21.7781
             78      -0.394872              0       -21.7889
             79      -0.397468              0       -21.7993
             80           -0.4              0       -21.8034
             81      -0.407407              0       -21.8086
             82      -0.414634              0       -21.8136
             83      -0.421687              0       -21.8166
             84      -0.428571              0       -21.8195
             85      -0.435294              0       -21.8223
             86      -0.439535              0       -21.8249
             87      -0.445977              0       -21.8264
             88          -0.45              0       -21.8323
             89      -0.451685              0       -21.8393
             90      -0.455556              0       -21.8453
             91      -0.457143              0       -21.8516
             92      -0.456522              0       -21.8581
             93      -0.458065              0       -21.8641
             94      -0.459574              0       -21.8699
             95      -0.461053              0       -21.8756
             96        -0.4625              0       -21.8812
             97      -0.463918              0       -21.8873
             98      -0.463265              0       -21.8944
             99      -0.464646              0       -21.9009
            100         -0.468              0       -21.9072
            101      -0.471287              0       -21.9134
            102       -0.47451              0       -21.9195
            103       -0.47767              0       -21.9246
            104      -0.480769              0       -21.9297
            105      -0.481905              0       -21.9355
            106      -0.483019              0       -21.9407
            107      -0.484112              0       -21.9458
            108      -0.485185              0       -21.9509
            109      -0.488073              0       -21.9554
            110      -0.490909              0       -21.9598
            111      -0.493694              0       -21.9641
            112      -0.494643              0       -21.9691
            113      -0.495575              0       -21.9721
            114      -0.496491              0       -21.9751
            115      -0.495652              0       -21.9804
            116      -0.498276              0       -21.9836
            117      -0.504274              0       -21.9846
            118       -0.50678              0       -21.9878
            119      -0.510924              0       -21.9902
            120      -0.516667              0       -21.9925
            121      -0.522314              0       -21.9948
            122      -0.522951              0       -21.9998
            123      -0.523577              0       -22.0048
            124      -0.523577              0       -22.0048
            125      -0.522581              0       -22.0097
            126        -0.5216              0       -22.0146
            127      -0.520635              0       -22.0194
            128       -0.52126              0       -22.0241
            129      -0.521875              0       -22.0284
            130       -0.52093              0       -22.0327
            131          -0.52              0       -22.0369
            132      -0.519084              0        -22.041
            133      -0.518182              0       -22.0454
            134      -0.517293              0       -22.0496
            135      -0.516418              0       -22.0538
            136      -0.515556              0       -22.0579
            137      -0.516176              0       -22.0597
            138      -0.515328              0       -22.0619
            139      -0.514493              0       -22.0641
            140      -0.513669              0       -22.0663
            141      -0.512857              0       -22.0684
            142      -0.512057              0       -22.0699
            143      -0.511268              0       -22.0714
            144       -0.51049              0       -22.0747
            145      -0.511111              0       -22.0777
            146      -0.510345              0       -22.0808
            147      -0.509589              0       -22.0838
            148      -0.508844              0       -22.0869
            149      -0.508108              0       -22.0899
            150      -0.508725              0       -22.0924
            151      -0.508725              0       -22.0924
            152      -0.508725              0       -22.0924
            153      -0.508725              0       -22.0924
            154      -0.508725              0       -22.0924
            155      -0.508725              0       -22.0924
            156      -0.508725              0       -22.0924
            157      -0.508725              0       -22.0924
            158      -0.508725              0       -22.0924
            159      -0.508725              0       -22.0924
            160      -0.508725              0       -22.0924
            161      -0.508725              0       -22.0924
            162      -0.508725              0       -22.0924
            163      -0.508725              0       -22.0924
            164      -0.508725              0       -22.0924
            165      -0.508725              0       -22.0924
            166      -0.508725              0       -22.0924
            167      -0.508725              0       -22.0924
            168      -0.508725              0       -22.0924
            169      -0.508725              0       -22.0924
            170      -0.508725              0       -22.0924
            171      -0.508725              0       -22.0924
            172      -0.508725              0       -22.0924
            173      -0.508725              0       -22.0924
            174      -0.508725              0       -22.0924
            175      -0.508725              0       -22.0924
            176      -0.508725              0       -22.0924
            177      -0.508725              0       -22.0924
            178      -0.508725              0       -22.0924
            179      -0.508725              0       -22.0924
            180      -0.508725              0       -22.0924
            181      -0.508725              0       -22.0924
            182      -0.508725              0       -22.0924
            183      -0.508725              0       -22.0924
            184      -0.508725              0       -22.0924
            185      -0.508725              0       -22.0924
            186      -0.508725              0       -22.0924
            187      -0.508725              0       -22.0924
            188      -0.508725              0       -22.0924
            189      -0.508725              0       -22.0924
            190      -0.508725              0       -22.0924
            191      -0.508725              0       -22.0924
            192      -0.508725              0       -22.0924
            193      -0.508725              0       -22.0924
            194      -0.508725              0       -22.0924
            195      -0.508725              0       -22.0924
            196      -0.508725              0       -22.0924
            197      -0.508725              0       -22.0924
            198      -0.508725              0       -22.0924
            199      -0.508725              0       -22.0924
            200      -0.508725              0       -22.0924
            201      -0.508725              0       -22.0924
            202      -0.508725              0       -22.0924
            203      -0.508725              0       -22.0924
            204      -0.508725              0       -22.0924
            205      -0.508725              0       -22.0924
            206      -0.508725              0       -22.0924
            207      -0.508725              0       -22.0924
            208      -0.508725              0       -22.0924
            209      -0.508725              0       -22.0924
            210      -0.508725              0       -22.0924
            211      -0.508725              0       -22.0924
            212      -0.508725              0       -22.0924
            213      -0.508725              0       -22.0924
            214      -0.508725              0       -22.0924
            215      -0.508725              0       -22.0924
            216      -0.508725              0       -22.0924
            217      -0.508725              0       -22.0924
            218      -0.508725              0       -22.0924
            219      -0.508725              0       -22.0924
            220      -0.508725              0       -22.0924
            221      -0.508725              0       -22.0924
            222      -0.508725              0       -22.0924
            223      -0.508725              0       -22.0924
            224      -0.508725              0       -22.0924
            225      -0.508725              0       -22.0924
            226      -0.508725              0       -22.0924
            227      -0.508725              0       -22.0924
            228      -0.508725              0       -22.0924
            229      -0.508725              0       -22.0924
            230      -0.509333              0        -22.103
            231      -0.511258              0       -22.1126
            232      -0.513158              0        -22.122
            233      -0.515033              0       -22.1313
            234      -0.518182              0       -22.1403
            235       -0.51871              0       -22.1501
            236      -0.519231              0       -22.1598
            237      -0.521019              0        -22.169
            238      -0.521019              0        -22.169
            239      -0.521019              0        -22.169
            240      -0.521019              0        -22.169
            241      -0.521019              0        -22.169
            242      -0.521019              0        -22.169
            243      -0.521019              0        -22.169
            244      -0.521019              0        -22.169
            245      -0.521019              0        -22.169
            246      -0.521019              0        -22.169
            247      -0.521019              0        -22.169
            248      -0.521019              0        -22.169
            249      -0.521019              0        -22.169
            250      -0.521019              0        -22.169
            251      -0.521019              0        -22.169
            252      -0.521019              0        -22.169
            253      -0.521019              0        -22.169
            254      -0.521019              0        -22.169
            255      -0.521019              0        -22.169
            256      -0.521019              0        -22.169
            257      -0.521019              0        -22.169
            258      -0.521019              0        -22.169
            259      -0.521019              0        -22.169
            260      -0.521019              0        -22.169
            261      -0.521019              0        -22.169
            262      -0.521019              0        -22.169
            263      -0.521019              0        -22.169
            264      -0.521019              0        -22.169
            265      -0.521019              0        -22.169
            266      -0.521019              0        -22.169
            267      -0.521019              0        -22.169
            268      -0.521019              0        -22.169
            269      -0.521019              0        -22.169
            270      -0.521019              0        -22.169
            271      -0.521019              0        -22.169
            272      -0.521019              0        -22.169
            273      -0.521019              0        -22.169
            274      -0.521019              0        -22.169
            275      -0.521019              0        -22.169
            276      -0.521019              0        -22.169
            277      -0.521019              0        -22.169
            278      -0.521019              0        -22.169
            279      -0.521019              0        -22.169
            280      -0.521019              0        -22.169
            281      -0.521019              0        -22.169
            282      -0.521019              0        -22.169
            283      -0.521019              0        -22.169
            284      -0.521019              0        -22.169
            285      -0.521019              0        -22.169
            286      -0.521019              0        -22.169
            287      -0.521019              0        -22.169
            288      -0.521019              0        -22.169
            289      -0.521019              0        -22.169
            290      -0.521019              0        -22.169
            291      -0.521019              0        -22.169
            292      -0.521019              0        -22.169
            293      -0.521019              0        -22.169
            294      -0.521019              0        -22.169
            295      -0.521019              0        -22.169
            296      -0.521019              0        -22.169
            297      -0.521019              0        -22.169
            298      -0.521019              0        -22.169
            299      -0.521019              0        -22.169
            300      -0.521019              0        -22.169
            301      -0.521019              0        -22.169
            302      -0.521019              0        -22.169
            303      -0.521019              0        -22.169
            304      -0.521019              0        -22.169
            305      -0.521019              0        -22.169
            306      -0.521019              0        -22.169
            307      -0.521019              0        -22.169
            308      -0.521019              0        -22.169
            309      -0.521019              0        -22.169
            310      -0.521019              0        -22.169
            311      -0.521019              0        -22.169
            312      -0.521019              0        -22.169
            313      -0.521019              0        -22.169
            314      -0.521019              0        -22.169
            315      -0.521019              0        -22.169
            316      -0.521019              0        -22.169
            317      -0.521019              0        -22.169
            318      -0.521019              0        -22.169
            319      -0.521019              0        -22.169
            320      -0.521019              0        -22.169
            321      -0.521019              0        -22.169
            322      -0.521019              0        -22.169
            323      -0.521019              0        -22.169
            324      -0.521019              0        -22.169
            325      -0.521019              0        -22.169
