seed=1725259037
seed2=184
L=10
nstep=10000
tw=1
Jz=0
eps=5
alpha=0
Sz=0
pbc=0
type=1
beta=10
tau=0.001
Jxy=1
wc=10
ss=1
              1           -0.8              0        -10.845
              2           -0.9              0       -11.3241
              3             -1              0       -11.7441
              4           -1.1              0       -12.6775
              5          -1.08              0       -13.5777
              6       -1.03333              0       -14.1837
              7             -1              0       -14.6166
              8         -0.975              0       -14.9413
              9      -0.977778              0       -15.2477
             10             -1              0       -15.4836
             11       -1.01818              0       -15.7664
             12       -1.01667              0       -16.0147
             13       -1.01538              0       -16.2248
             14       -1.01429              0       -16.4049
             15       -1.01333              0        -16.561
             16             -1              0       -16.7034
             17      -0.988235              0       -16.8253
             18      -0.977778              0       -16.9336
             19      -0.978947              0       -17.0521
             20          -0.97              0       -17.1689
             21      -0.952381              0       -17.2772
             22      -0.927273              0       -17.4107
             23      -0.904348              0       -17.5325
             24      -0.883333              0       -17.6442
             25         -0.872              0       -17.7386
             26      -0.869231              0       -17.8227
             27      -0.859259              0       -17.9034
             28          -0.85              0       -17.9784
             29      -0.841379              0        -18.047
             30      -0.833333              0        -18.111
             31      -0.825806              0       -18.1709
             32        -0.8125              0       -18.2336
             33      -0.806061              0       -18.2984
             34           -0.8              0       -18.3626
             35      -0.794286              0       -18.4217
             36      -0.788889              0       -18.4776
             37      -0.789189              0       -18.5332
             38      -0.789474              0       -18.5859
             39      -0.789744              0       -18.6359
             40         -0.785              0       -18.6784
             41      -0.780488              0       -18.7199
             42       -0.77619              0       -18.7964
             43      -0.772093              0       -18.8693
             44      -0.763636              0       -18.9421
             45      -0.751111              0         -19.04
             46       -0.73913              0       -19.1336
             47       -0.72766              0       -19.2232
             48      -0.716667              0       -19.3091
             49      -0.702041              0       -19.3942
             50         -0.692              0       -19.4756
             51      -0.682353              0       -19.5538
             52      -0.673077              0        -19.629
             53      -0.660377              0       -19.7017
             54      -0.648148              0       -19.7717
             55      -0.636364              0       -19.8392
             56         -0.625              0       -19.9042
             57      -0.614035              0        -19.967
             58      -0.603448              0       -20.0276
             59       -0.59322              0       -20.0861
             60      -0.583333              0       -20.1427
             61       -0.57377              0       -20.1975
             62      -0.564516              0       -20.2505
             63      -0.555556              0       -20.3017
             64      -0.546875              0       -20.3514
             65      -0.538462              0       -20.3996
             66      -0.530303              0       -20.4463
             67      -0.522388              0       -20.4916
             68      -0.517647              0       -20.5343
             69      -0.513043              0       -20.5763
             70      -0.508571              0       -20.6171
             71      -0.504225              0       -20.6568
             72           -0.5              0       -20.6953
             73       -0.49863              0       -20.7303
             74      -0.497297              0       -20.7643
             75         -0.496              0       -20.7974
             76      -0.494737              0       -20.8296
             77      -0.496104              0       -20.8587
             78      -0.497436              0        -20.887
             79      -0.498734              0       -20.9146
             80        -0.4975              0       -20.9438
             81      -0.496296              0       -20.9704
             82      -0.492683              0       -20.9988
             83      -0.489157              0       -21.0264
             84      -0.485714              0       -21.0534
             85          -0.48              0        -21.082
             86      -0.474419              0       -21.1099
             87      -0.471264              0       -21.1367
             88      -0.470455              0       -21.1621
             89      -0.469663              0        -21.187
             90      -0.468889              0       -21.2113
             91      -0.468132              0       -21.2351
             92      -0.465217              0       -21.2588
             93      -0.462366              0        -21.282
             94      -0.459574              0       -21.3046
             95      -0.456842              0       -21.3269
             96      -0.452083              0       -21.3493
             97      -0.447423              0       -21.3713
             98      -0.444898              0       -21.3919
             99      -0.440404              0        -21.413
            100         -0.436              0       -21.4337
            101      -0.431683              0        -21.454
            102      -0.429412              0       -21.4729
            103      -0.427184              0       -21.4914
            104         -0.425              0       -21.5096
            105      -0.422857              0       -21.5274
            106      -0.420755              0       -21.5449
            107      -0.418692              0        -21.562
            108      -0.416667              0       -21.5789
            109      -0.416514              0       -21.5925
            110      -0.414545              0       -21.6088
            111      -0.412613              0       -21.6247
            112      -0.410714              0       -21.6404
            113       -0.40885              0       -21.6558
            114      -0.407018              0       -21.6709
            115      -0.405217              0       -21.6858
            116      -0.403448              0       -21.7004
            117      -0.401709              0       -21.7149
            118      -0.401695              0        -21.729
            119      -0.403361              0       -21.7425
            120         -0.405              0       -21.7558
            121      -0.404959              0       -21.7692
            122      -0.404918              0       -21.7825
            123      -0.404878              0       -21.7955
            124      -0.404839              0       -21.8083
            125        -0.4048              0       -21.8209
            126      -0.403175              0       -21.8333
            127      -0.401575              0       -21.8456
            128           -0.4              0       -21.8577
            129       -0.39845              0       -21.8696
            130      -0.396923              0       -21.8813
            131       -0.39542              0       -21.8928
            132      -0.393939              0       -21.9041
            133      -0.390977              0        -21.916
            134       -0.38806              0       -21.9277
            135      -0.385185              0       -21.9392
            136      -0.382353              0       -21.9505
            137      -0.381022              0       -21.9601
            138       -0.37971              0       -21.9696
            139      -0.378417              0       -21.9789
            140      -0.377143              0        -21.988
            141      -0.375887              0       -21.9971
            142      -0.374648              0        -22.006
            143      -0.372028              0       -22.0163
            144      -0.369444              0       -22.0265
            145      -0.366897              0       -22.0365
            146      -0.364384              0       -22.0464
            147      -0.363265              0       -22.0556
            148      -0.360811              0       -22.0653
            149      -0.358389              0       -22.0748
            150         -0.356              0       -22.0842
            151      -0.353642              0       -22.0934
            152      -0.351316              0       -22.1026
            153       -0.34902              0       -22.1116
            154      -0.346753              0       -22.1205
            155      -0.344516              0       -22.1293
            156      -0.342308              0       -22.1379
            157      -0.340127              0       -22.1465
            158      -0.337975              0       -22.1549
            159      -0.335849              0       -22.1633
            160       -0.33375              0       -22.1715
            161      -0.334161              0       -22.1777
            162      -0.334568              0       -22.1838
            163      -0.334969              0       -22.1899
            164      -0.335366              0       -22.1958
            165      -0.335758              0       -22.2011
            166      -0.333735              0       -22.2088
            167      -0.331737              0       -22.2165
            168      -0.329762              0        -22.224
            169      -0.327811              0       -22.2314
            170      -0.327059              0       -22.2388
            171      -0.327485              0       -22.2458
            172      -0.327907              0       -22.2527
            173      -0.327168              0       -22.2598
            174      -0.327586              0       -22.2665
            175      -0.326857              0       -22.2734
            176      -0.327273              0       -22.2787
            177      -0.327684              0       -22.2838
            178       -0.32809              0       -22.2889
            179      -0.328492              0       -22.2939
            180      -0.328889              0       -22.2989
            181      -0.328177              0       -22.3038
            182      -0.327473              0       -22.3087
            183      -0.326776              0       -22.3142
            184      -0.326087              0       -22.3195
            185      -0.324324              0       -22.3258
            186      -0.322581              0        -22.332
            187      -0.320856              0       -22.3382
            188      -0.319149              0       -22.3442
            189       -0.31746              0       -22.3503
            190      -0.315789              0       -22.3562
            191      -0.314136              0       -22.3621
            192        -0.3125              0       -22.3679
            193      -0.312953              0       -22.3719
            194      -0.313402              0       -22.3759
            195      -0.313846              0       -22.3798
            196      -0.313265              0       -22.3852
            197       -0.31269              0       -22.3906
            198      -0.312121              0        -22.396
            199      -0.312563              0       -22.4007
            200         -0.313              0       -22.4054
            201      -0.312438              0       -22.4106
            202      -0.311881              0       -22.4157
            203       -0.31133              0       -22.4208
            204      -0.310784              0       -22.4258
            205      -0.310244              0       -22.4308
            206      -0.308738              0       -22.4359
            207      -0.307246              0        -22.441
            208      -0.306731              0       -22.4446
            209       -0.30622              0       -22.4495
            210      -0.305714              0       -22.4544
            211      -0.305213              0       -22.4592
            212      -0.304717              0        -22.464
            213      -0.304225              0       -22.4687
            214      -0.303738              0       -22.4734
            215      -0.303256              0       -22.4781
            216      -0.303704              0       -22.4819
            217      -0.303226              0       -22.4858
            218      -0.302752              0       -22.4896
            219      -0.302283              0       -22.4934
            220      -0.301818              0       -22.4971
            221      -0.301357              0       -22.5009
            222      -0.300901              0       -22.5045
            223      -0.301345              0       -22.5082
            224      -0.301786              0       -22.5118
            225      -0.301333              0       -22.5161
            226      -0.300885              0       -22.5204
            227      -0.301322              0       -22.5234
            228      -0.300877              0       -22.5264
            229      -0.300437              0       -22.5293
            230           -0.3              0       -22.5322
            231      -0.299567              0       -22.5351
            232      -0.299138              0        -22.538
            233      -0.298712              0       -22.5409
            234      -0.297436              0       -22.5449
            235       -0.29617              0       -22.5489
            236      -0.294915              0       -22.5528
            237      -0.293671              0       -22.5568
            238      -0.292437              0       -22.5606
            239       -0.29205              0       -22.5644
            240      -0.291667              0        -22.568
            241      -0.291286              0       -22.5717
            242      -0.290909              0       -22.5753
            243      -0.290535              0       -22.5789
            244      -0.289344              0       -22.5826
            245      -0.288163              0       -22.5863
            246      -0.286992              0       -22.5899
            247       -0.28583              0       -22.5935
            248      -0.284677              0       -22.5971
            249      -0.283534              0       -22.6006
            250        -0.2824              0       -22.6042
            251      -0.281275              0       -22.6077
            252      -0.280159              0       -22.6111
            253      -0.279842              0       -22.6144
            254      -0.279528              0       -22.6175
            255      -0.279216              0       -22.6207
            256      -0.278906              0       -22.6239
            257      -0.279377              0       -22.6269
            258      -0.279845              0         -22.63
            259      -0.279537              0       -22.6332
            260      -0.279231              0       -22.6364
            261      -0.278927              0       -22.6396
            262      -0.278626              0       -22.6427
            263      -0.278327              0       -22.6459
            264       -0.27803              0        -22.649
            265      -0.277736              0        -22.652
            266      -0.277444              0       -22.6546
            267      -0.277154              0       -22.6571
            268      -0.277612              0       -22.6593
            269      -0.277323              0       -22.6617
            270      -0.277778              0       -22.6627
            271      -0.278229              0       -22.6637
            272      -0.277941              0        -22.666
            273      -0.277656              0       -22.6684
            274      -0.277372              0       -22.6707
            275      -0.277091              0        -22.673
            276      -0.276812              0       -22.6753
            277      -0.276534              0       -22.6776
            278       -0.27554              0       -22.6805
            279      -0.275269              0       -22.6833
            280         -0.275              0       -22.6851
            281      -0.276157              0       -22.6863
            282      -0.277305              0       -22.6876
            283      -0.278445              0       -22.6886
            284      -0.279577              0       -22.6897
            285      -0.280702              0       -22.6908
            286      -0.281818              0       -22.6918
            287      -0.282927              0       -22.6928
            288      -0.284028              0       -22.6939
            289      -0.285121              0       -22.6947
            290      -0.284828              0       -22.6962
            291      -0.284536              0       -22.6978
            292      -0.284932              0        -22.699
            293      -0.285324              0       -22.7003
            294      -0.285714              0       -22.7025
            295      -0.285424              0       -22.7049
            296      -0.285135              0       -22.7074
            297      -0.284848              0       -22.7098
            298      -0.284564              0       -22.7124
            299      -0.284281              0       -22.7149
            300         -0.284              0       -22.7174
            301      -0.283721              0       -22.7199
            302      -0.283444              0       -22.7224
            303      -0.283168              0       -22.7248
            304      -0.282895              0       -22.7273
            305      -0.282623              0       -22.7297
            306      -0.283007              0       -22.7317
            307      -0.283388              0       -22.7337
            308      -0.283117              0       -22.7361
            309      -0.282201              0       -22.7385
            310      -0.281935              0       -22.7409
            311      -0.282315              0       -22.7429
            312      -0.282051              0       -22.7452
            313      -0.281789              0       -22.7475
            314      -0.281529              0       -22.7499
            315      -0.281905              0       -22.7521
            316      -0.282278              0       -22.7543
            317      -0.282019              0       -22.7566
            318      -0.281761              0       -22.7588
            319      -0.280878              0       -22.7611
            320          -0.28              0       -22.7633
            321      -0.279751              0       -22.7651
            322      -0.279503              0       -22.7669
            323      -0.279257              0       -22.7686
            324      -0.278395              0       -22.7708
            325      -0.277538              0        -22.773
