seed=1725239196
seed2=238
L=10
nstep=10000
tw=1
Jz=0
eps=5
alpha=0
Sz=0
pbc=0
type=1
beta=10
tau=0.001
Jxy=1
wc=10
ss=1
              1           -0.4              0       -15.1782
              2           -0.7              0       -15.4257
              3      -0.933333              0       -15.4898
              4          -1.05              0       -15.5918
              5          -1.08              0       -15.6507
              6       -1.13333              0       -15.9052
              7       -1.14286              0       -16.1082
              8         -1.175              0       -16.2286
              9       -1.22222              0        -16.344
             10          -1.28              0        -16.433
             11       -1.30909              0       -16.5116
             12          -1.35              0       -16.5792
             13           -1.4              0       -16.6714
             14       -1.45714              0       -16.7556
             15       -1.45333              0       -16.8341
             16        -1.4625              0       -17.2516
             17       -1.48235              0       -17.6227
             18       -1.51111              0       -17.9674
             19       -1.52632              0       -18.2787
             20          -1.55              0       -18.5667
             21       -1.57143              0       -18.8264
             22       -1.59091              0       -19.0525
             23           -1.6              0       -19.2648
             24       -1.60833              0       -19.4599
             25         -1.616              0       -19.6399
             26       -1.63846              0       -19.8217
             27       -1.65185              0       -19.9862
             28          -1.65              0       -20.1455
             29       -1.65517              0       -20.2892
             30       -1.66667              0       -20.4265
             31       -1.67742              0       -20.5542
             32        -1.6875              0        -20.672
             33       -1.70303              0       -20.8041
             34       -1.71176              0       -20.9782
             35       -1.70286              0       -21.1499
             36       -1.69444              0       -21.3117
             37        -1.6973              0       -21.4649
             38           -1.7              0         -21.61
             39       -1.69231              0       -21.7478
             40         -1.685              0        -21.879
             41       -1.68293              0       -22.0021
             42       -1.68095              0       -22.1187
             43       -1.68372              0       -22.2298
             44       -1.68182              0       -22.3539
             45          -1.68              0       -22.4729
             46       -1.67391              0       -22.5868
             47       -1.66809              0       -22.6959
             48       -1.65833              0       -22.8009
             49       -1.64082              0       -22.9014
             50         -1.624              0       -22.9979
             51       -1.61176              0       -23.1037
             52           -1.6              0       -23.2054
             53       -1.58491              0       -23.3033
             54       -1.56667              0       -23.3918
             55       -1.54909              0       -23.4881
             56       -1.53214              0       -23.5949
             57       -1.51579              0       -23.6979
             58       -1.50345              0       -23.7963
             59       -1.49153              0       -23.8914
             60          -1.48              0       -23.9833
             61       -1.47541              0       -24.0726
             62       -1.47097              0       -24.1597
             63       -1.46032              0       -24.2452
             64       -1.45625              0       -24.3274
             65       -1.44615              0       -24.4126
             66       -1.43333              0       -24.4952
             67        -1.4209              0       -24.5752
             68       -1.40882              0       -24.6531
             69        -1.3942              0       -24.7291
             70       -1.38286              0       -24.8028
             71       -1.36901              0       -24.8742
             72       -1.35833              0       -24.9436
             73       -1.35068              0       -25.0103
             74       -1.34595              0       -25.0754
             75         -1.336              0       -25.1387
             76       -1.32368              0       -25.2009
             77       -1.31429              0       -25.2582
             78       -1.30513              0       -25.3141
             79        -1.2962              0       -25.3685
             80          -1.29              0       -25.4213
             81       -1.28889              0       -25.4731
             82       -1.29024              0       -25.5261
             83       -1.28675              0       -25.5778
             84       -1.28333              0       -25.6285
             85       -1.27529              0       -25.6782
             86       -1.26744              0       -25.7267
             87       -1.26207              0        -25.774
             88       -1.25682              0       -25.8202
             89       -1.24944              0       -25.8659
             90          -1.24              0       -25.9107
             91       -1.22857              0       -25.9546
             92       -1.21739              0       -25.9975
             93        -1.2086              0       -26.0395
             94           -1.2              0       -26.0805
             95       -1.19158              0       -26.1207
             96       -1.18333              0         -26.16
             97       -1.17732              0       -26.1985
             98       -1.17143              0       -26.2362
             99       -1.17143              0       -26.2362
            100       -1.17143              0       -26.2362
            101       -1.17143              0       -26.2362
            102       -1.17143              0       -26.2362
            103       -1.17143              0       -26.2362
            104       -1.17143              0       -26.2362
            105       -1.17143              0       -26.2362
            106       -1.17143              0       -26.2362
            107       -1.17143              0       -26.2362
            108       -1.17143              0       -26.2362
            109       -1.17143              0       -26.2362
            110       -1.17143              0       -26.2362
            111       -1.17143              0       -26.2362
            112       -1.17143              0       -26.2362
            113       -1.17143              0       -26.2362
            114       -1.17143              0       -26.2362
            115       -1.17143              0       -26.2362
            116       -1.17143              0       -26.2362
            117       -1.17143              0       -26.2362
            118       -1.17143              0       -26.2362
            119       -1.17143              0       -26.2362
            120       -1.17143              0       -26.2362
            121       -1.17143              0       -26.2362
            122       -1.17143              0       -26.2362
            123       -1.17143              0       -26.2362
            124       -1.17143              0       -26.2362
            125       -1.17143              0       -26.2362
            126       -1.17143              0       -26.2362
            127       -1.17143              0       -26.2362
            128       -1.17143              0       -26.2362
            129       -1.17143              0       -26.2362
            130       -1.17143              0       -26.2362
            131       -1.17143              0       -26.2362
            132       -1.17143              0       -26.2362
            133       -1.17143              0       -26.2362
            134       -1.17143              0       -26.2362
            135       -1.17143              0       -26.2362
            136       -1.17143              0       -26.2362
            137       -1.17143              0       -26.2362
            138       -1.17143              0       -26.2362
            139       -1.17143              0       -26.2362
            140       -1.17143              0       -26.2362
            141       -1.17143              0       -26.2362
            142       -1.17143              0       -26.2362
            143       -1.17143              0       -26.2362
            144       -1.17143              0       -26.2362
            145       -1.17143              0       -26.2362
            146       -1.17143              0       -26.2362
            147       -1.17143              0       -26.2362
            148       -1.17143              0       -26.2362
            149       -1.17143              0       -26.2362
            150       -1.17143              0       -26.2362
            151       -1.17143              0       -26.2362
            152       -1.17143              0       -26.2362
            153       -1.17143              0       -26.2362
            154       -1.17143              0       -26.2362
            155       -1.17143              0       -26.2362
            156       -1.17143              0       -26.2362
            157       -1.17143              0       -26.2362
            158       -1.17143              0       -26.2362
            159       -1.17143              0       -26.2362
            160       -1.17143              0       -26.2362
            161       -1.17143              0       -26.2362
            162       -1.17143              0       -26.2362
            163       -1.17143              0       -26.2362
            164       -1.17143              0       -26.2362
            165       -1.17143              0       -26.2362
            166       -1.17143              0       -26.2362
            167       -1.17143              0       -26.2362
            168       -1.17143              0       -26.2362
            169       -1.17143              0       -26.2362
            170       -1.17143              0       -26.2362
            171       -1.17143              0       -26.2362
            172       -1.17143              0       -26.2362
            173       -1.17143              0       -26.2362
            174       -1.17143              0       -26.2362
            175       -1.17143              0       -26.2362
            176       -1.17143              0       -26.2362
            177       -1.17143              0       -26.2362
            178       -1.17143              0       -26.2362
            179       -1.17143              0       -26.2362
            180       -1.17143              0       -26.2362
            181       -1.17143              0       -26.2362
            182       -1.17143              0       -26.2362
            183       -1.17143              0       -26.2362
            184       -1.17143              0       -26.2362
            185       -1.17143              0       -26.2362
            186       -1.17143              0       -26.2362
            187       -1.17143              0       -26.2362
            188       -1.17143              0       -26.2362
            189       -1.17143              0       -26.2362
            190       -1.17143              0       -26.2362
            191       -1.17143              0       -26.2362
            192       -1.17143              0       -26.2362
            193       -1.17143              0       -26.2362
            194       -1.17143              0       -26.2362
            195       -1.17143              0       -26.2362
            196       -1.17143              0       -26.2362
            197       -1.17143              0       -26.2362
            198       -1.17143              0       -26.2362
            199       -1.17143              0       -26.2362
            200       -1.17143              0       -26.2362
            201       -1.17143              0       -26.2362
            202       -1.17143              0       -26.2362
            203       -1.17143              0       -26.2362
            204       -1.17143              0       -26.2362
            205       -1.17143              0       -26.2362
            206       -1.17143              0       -26.2362
            207       -1.17143              0       -26.2362
            208       -1.17143              0       -26.2362
            209       -1.17143              0       -26.2362
            210       -1.17143              0       -26.2362
            211       -1.17143              0       -26.2362
            212       -1.17143              0       -26.2362
            213       -1.17143              0       -26.2362
            214       -1.17143              0       -26.2362
            215       -1.17143              0       -26.2362
            216       -1.17143              0       -26.2362
            217       -1.17143              0       -26.2362
            218       -1.17143              0       -26.2362
            219       -1.17143              0       -26.2362
            220       -1.17143              0       -26.2362
            221       -1.17143              0       -26.2362
            222       -1.17143              0       -26.2362
            223       -1.17143              0       -26.2362
            224       -1.17143              0       -26.2362
            225       -1.17143              0       -26.2362
            226       -1.17143              0       -26.2362
            227       -1.17143              0       -26.2362
            228       -1.17143              0       -26.2362
            229       -1.17143              0       -26.2362
            230       -1.17143              0       -26.2362
            231       -1.17143              0       -26.2362
            232       -1.17143              0       -26.2362
            233       -1.17143              0       -26.2362
            234       -1.17143              0       -26.2362
            235       -1.17143              0       -26.2362
            236       -1.17143              0       -26.2362
            237       -1.17143              0       -26.2362
            238       -1.17143              0       -26.2362
            239       -1.17143              0       -26.2362
            240       -1.17143              0       -26.2362
            241       -1.17143              0       -26.2362
            242       -1.17143              0       -26.2362
            243       -1.17143              0       -26.2362
            244       -1.17143              0       -26.2362
            245       -1.17143              0       -26.2362
            246       -1.17143              0       -26.2362
            247       -1.17143              0       -26.2362
            248       -1.17143              0       -26.2362
            249       -1.17143              0       -26.2362
            250       -1.17143              0       -26.2362
            251       -1.17143              0       -26.2362
            252       -1.17143              0       -26.2362
            253       -1.17143              0       -26.2362
            254       -1.17143              0       -26.2362
            255       -1.17143              0       -26.2362
            256       -1.17143              0       -26.2362
            257       -1.17143              0       -26.2362
            258       -1.17143              0       -26.2362
            259       -1.17143              0       -26.2362
            260       -1.17143              0       -26.2362
            261       -1.17143              0       -26.2362
            262       -1.17143              0       -26.2362
            263       -1.17143              0       -26.2362
            264       -1.17143              0       -26.2362
            265       -1.17143              0       -26.2362
            266       -1.17143              0       -26.2362
            267       -1.17143              0       -26.2362
            268       -1.17143              0       -26.2362
            269       -1.17143              0       -26.2362
            270       -1.17143              0       -26.2362
            271       -1.17143              0       -26.2362
            272       -1.17143              0       -26.2362
            273       -1.17143              0       -26.2362
            274       -1.17143              0       -26.2362
            275       -1.17143              0       -26.2362
            276       -1.17143              0       -26.2362
            277       -1.17143              0       -26.2362
            278       -1.17143              0       -26.2362
            279       -1.17143              0       -26.2362
            280       -1.17143              0       -26.2362
            281       -1.17143              0       -26.2362
            282       -1.17143              0       -26.2362
            283       -1.17143              0       -26.2362
            284       -1.17143              0       -26.2362
            285       -1.17143              0       -26.2362
            286       -1.17143              0       -26.2362
            287       -1.17143              0       -26.2362
            288       -1.17143              0       -26.2362
            289       -1.17143              0       -26.2362
            290       -1.17143              0       -26.2362
            291       -1.17143              0       -26.2362
            292       -1.17143              0       -26.2362
            293       -1.17143              0       -26.2362
            294       -1.17143              0       -26.2362
            295       -1.17143              0       -26.2362
            296       -1.17143              0       -26.2362
            297       -1.17143              0       -26.2362
            298       -1.17143              0       -26.2362
            299       -1.17143              0       -26.2362
            300       -1.17143              0       -26.2362
            301       -1.17143              0       -26.2362
            302       -1.17143              0       -26.2362
            303       -1.17143              0       -26.2362
            304       -1.17143              0       -26.2362
            305       -1.17143              0       -26.2362
            306       -1.17143              0       -26.2362
            307       -1.17143              0       -26.2362
            308       -1.17143              0       -26.2362
            309       -1.17143              0       -26.2362
            310       -1.17143              0       -26.2362
            311       -1.17143              0       -26.2362
            312       -1.17143              0       -26.2362
            313       -1.17143              0       -26.2362
            314       -1.17143              0       -26.2362
            315       -1.17143              0       -26.2362
            316       -1.17143              0       -26.2362
            317       -1.17143              0       -26.2362
            318       -1.17143              0       -26.2362
            319       -1.17143              0       -26.2362
            320       -1.17143              0       -26.2362
            321       -1.17143              0       -26.2362
            322       -1.17143              0       -26.2362
            323       -1.17143              0       -26.2362
            324       -1.17143              0       -26.2362
            325       -1.17143              0       -26.2362
