seed=1725278593
seed2=152
L=10
nstep=10000
tw=1
Jz=0
eps=5
alpha=0
Sz=0
pbc=0
type=1
beta=10
tau=0.001
Jxy=1
wc=10
ss=1
              1           -0.2              0       -6.96716
              2           -0.4              0       -9.31017
              3           -0.6              0       -10.0687
              4          -0.75              0       -10.4932
              5           -0.8              0        -10.791
              6      -0.866667              0       -10.9872
              7      -0.942857              0        -11.186
              8             -1              0       -11.3352
              9       -1.04444              0       -11.4717
             10          -1.12              0        -11.574
             11       -1.16364              0       -11.7926
             12           -1.2              0       -11.9606
             13       -1.21538              0       -12.1331
             14           -1.2              0       -12.3187
             15       -1.17333              0       -12.4858
             16       -1.17333              0       -12.4858
             17       -1.17333              0       -12.4858
             18       -1.17333              0       -12.4858
             19       -1.17333              0       -12.4858
             20       -1.17333              0       -12.4858
             21       -1.17333              0       -12.4858
             22       -1.17333              0       -12.4858
             23       -1.17333              0       -12.4858
             24       -1.17333              0       -12.4858
             25       -1.17333              0       -12.4858
             26       -1.17333              0       -12.4858
             27       -1.17333              0       -12.4858
             28       -1.17333              0       -12.4858
             29       -1.17333              0       -12.4858
             30       -1.17333              0       -12.4858
             31       -1.17333              0       -12.4858
             32       -1.17333              0       -12.4858
             33       -1.17333              0       -12.4858
             34       -1.17333              0       -12.4858
             35       -1.17333              0       -12.4858
             36       -1.17333              0       -12.4858
             37       -1.17333              0       -12.4858
             38       -1.17333              0       -12.4858
             39       -1.17333              0       -12.4858
             40       -1.17333              0       -12.4858
             41       -1.17333              0       -12.4858
             42       -1.17333              0       -12.4858
             43       -1.17333              0       -12.4858
             44       -1.17333              0       -12.4858
             45       -1.17333              0       -12.4858
             46       -1.17333              0       -12.4858
             47       -1.17333              0       -12.4858
             48       -1.17333              0       -12.4858
             49       -1.17333              0       -12.4858
             50       -1.17333              0       -12.4858
             51       -1.17333              0       -12.4858
             52       -1.17333              0       -12.4858
             53       -1.17333              0       -12.4858
             54       -1.17333              0       -12.4858
             55       -1.17333              0       -12.4858
             56       -1.17333              0       -12.4858
             57       -1.17333              0       -12.4858
             58       -1.17333              0       -12.4858
             59       -1.17333              0       -12.4858
             60       -1.17333              0       -12.4858
             61       -1.17333              0       -12.4858
             62       -1.17333              0       -12.4858
             63       -1.17333              0       -12.4858
             64       -1.17333              0       -12.4858
             65       -1.17333              0       -12.4858
             66       -1.17333              0       -12.4858
             67       -1.17333              0       -12.4858
             68       -1.17333              0       -12.4858
             69       -1.17333              0       -12.4858
             70       -1.17333              0       -12.4858
             71       -1.17333              0       -12.4858
             72       -1.17333              0       -12.4858
             73       -1.17333              0       -12.4858
             74       -1.17333              0       -12.4858
             75       -1.17333              0       -12.4858
             76       -1.17333              0       -12.4858
             77       -1.17333              0       -12.4858
             78       -1.17333              0       -12.4858
             79       -1.17333              0       -12.4858
             80       -1.17333              0       -12.4858
             81       -1.17333              0       -12.4858
             82       -1.17333              0       -12.4858
             83       -1.17333              0       -12.4858
             84       -1.17333              0       -12.4858
             85       -1.17333              0       -12.4858
             86       -1.17333              0       -12.4858
             87       -1.17333              0       -12.4858
             88       -1.17333              0       -12.4858
             89       -1.17333              0       -12.4858
             90       -1.17333              0       -12.4858
             91       -1.17333              0       -12.4858
             92       -1.17333              0       -12.4858
             93       -1.17333              0       -12.4858
             94       -1.17333              0       -12.4858
             95       -1.17333              0       -12.4858
             96       -1.17333              0       -12.4858
             97       -1.17333              0       -12.4858
             98       -1.17333              0       -12.4858
             99       -1.17333              0       -12.4858
            100       -1.17333              0       -12.4858
            101       -1.17333              0       -12.4858
            102       -1.17333              0       -12.4858
            103       -1.17333              0       -12.4858
            104       -1.17333              0       -12.4858
            105       -1.17333              0       -12.4858
            106       -1.17333              0       -12.4858
            107       -1.17333              0       -12.4858
            108       -1.17333              0       -12.4858
            109       -1.17333              0       -12.4858
            110       -1.17333              0       -12.4858
            111       -1.17333              0       -12.4858
            112       -1.17333              0       -12.4858
            113       -1.17333              0       -12.4858
            114       -1.17333              0       -12.4858
            115       -1.17333              0       -12.4858
            116       -1.17333              0       -12.4858
            117       -1.17333              0       -12.4858
            118       -1.17333              0       -12.4858
            119       -1.17333              0       -12.4858
            120       -1.17333              0       -12.4858
            121       -1.17333              0       -12.4858
            122       -1.17333              0       -12.4858
            123       -1.17333              0       -12.4858
            124       -1.17333              0       -12.4858
            125       -1.17333              0       -12.4858
            126       -1.17333              0       -12.4858
            127       -1.17333              0       -12.4858
            128       -1.17333              0       -12.4858
            129       -1.17333              0       -12.4858
            130       -1.17333              0       -12.4858
            131       -1.17333              0       -12.4858
            132       -1.17333              0       -12.4858
            133       -1.17333              0       -12.4858
            134       -1.17333              0       -12.4858
            135       -1.17333              0       -12.4858
            136       -1.17333              0       -12.4858
            137       -1.17333              0       -12.4858
            138       -1.17333              0       -12.4858
            139       -1.17333              0       -12.4858
            140       -1.17333              0       -12.4858
            141       -1.17333              0       -12.4858
            142       -1.17333              0       -12.4858
            143       -1.17333              0       -12.4858
            144       -1.17333              0       -12.4858
            145       -1.17333              0       -12.4858
            146       -1.17333              0       -12.4858
            147       -1.17333              0       -12.4858
            148       -1.17333              0       -12.4858
            149       -1.17333              0       -12.4858
            150       -1.17333              0       -12.4858
            151       -1.17333              0       -12.4858
            152       -1.17333              0       -12.4858
            153       -1.17333              0       -12.4858
            154       -1.17333              0       -12.4858
            155       -1.17333              0       -12.4858
            156       -1.17333              0       -12.4858
            157       -1.17333              0       -12.4858
            158       -1.17333              0       -12.4858
            159       -1.17333              0       -12.4858
            160       -1.17333              0       -12.4858
            161       -1.17333              0       -12.4858
            162       -1.17333              0       -12.4858
            163       -1.17333              0       -12.4858
            164       -1.17333              0       -12.4858
            165       -1.17333              0       -12.4858
            166       -1.17333              0       -12.4858
            167       -1.17333              0       -12.4858
            168       -1.17333              0       -12.4858
            169       -1.17333              0       -12.4858
            170       -1.17333              0       -12.4858
            171       -1.17333              0       -12.4858
            172       -1.17333              0       -12.4858
            173       -1.17333              0       -12.4858
            174       -1.17333              0       -12.4858
            175       -1.17333              0       -12.4858
            176       -1.17333              0       -12.4858
            177       -1.17333              0       -12.4858
            178       -1.17333              0       -12.4858
            179       -1.17333              0       -12.4858
            180       -1.17333              0       -12.4858
            181       -1.17333              0       -12.4858
            182       -1.17333              0       -12.4858
            183       -1.17333              0       -12.4858
            184       -1.17333              0       -12.4858
            185       -1.17333              0       -12.4858
            186       -1.17333              0       -12.4858
            187       -1.17333              0       -12.4858
            188       -1.17333              0       -12.4858
            189       -1.17333              0       -12.4858
            190       -1.17333              0       -12.4858
            191       -1.17333              0       -12.4858
            192       -1.17333              0       -12.4858
            193       -1.17333              0       -12.4858
            194       -1.17333              0       -12.4858
            195       -1.17333              0       -12.4858
            196       -1.17333              0       -12.4858
            197       -1.17333              0       -12.4858
            198       -1.17333              0       -12.4858
            199       -1.17333              0       -12.4858
            200       -1.17333              0       -12.4858
            201       -1.17333              0       -12.4858
            202       -1.17333              0       -12.4858
            203       -1.17333              0       -12.4858
            204       -1.17333              0       -12.4858
            205       -1.17333              0       -12.4858
            206       -1.17333              0       -12.4858
            207       -1.17333              0       -12.4858
            208       -1.17333              0       -12.4858
            209       -1.17333              0       -12.4858
            210       -1.17333              0       -12.4858
            211       -1.17333              0       -12.4858
            212       -1.17333              0       -12.4858
            213       -1.17333              0       -12.4858
            214       -1.17333              0       -12.4858
            215       -1.17333              0       -12.4858
            216       -1.17333              0       -12.4858
            217       -1.17333              0       -12.4858
            218       -1.17333              0       -12.4858
            219       -1.17333              0       -12.4858
            220       -1.17333              0       -12.4858
            221       -1.17333              0       -12.4858
            222       -1.17333              0       -12.4858
            223       -1.17333              0       -12.4858
            224       -1.17333              0       -12.4858
            225       -1.17333              0       -12.4858
            226       -1.17333              0       -12.4858
            227       -1.17333              0       -12.4858
            228       -1.17333              0       -12.4858
            229       -1.17333              0       -12.4858
            230       -1.17333              0       -12.4858
            231       -1.17333              0       -12.4858
            232       -1.17333              0       -12.4858
            233       -1.17333              0       -12.4858
            234       -1.17333              0       -12.4858
            235       -1.17333              0       -12.4858
            236       -1.17333              0       -12.4858
            237       -1.17333              0       -12.4858
            238       -1.17333              0       -12.4858
            239       -1.17333              0       -12.4858
            240       -1.17333              0       -12.4858
            241       -1.17333              0       -12.4858
            242       -1.17333              0       -12.4858
            243       -1.17333              0       -12.4858
            244       -1.17333              0       -12.4858
            245       -1.17333              0       -12.4858
            246       -1.17333              0       -12.4858
            247       -1.17333              0       -12.4858
            248       -1.17333              0       -12.4858
            249       -1.17333              0       -12.4858
            250       -1.17333              0       -12.4858
            251       -1.17333              0       -12.4858
            252       -1.17333              0       -12.4858
            253       -1.17333              0       -12.4858
            254       -1.17333              0       -12.4858
            255       -1.17333              0       -12.4858
            256       -1.17333              0       -12.4858
            257       -1.17333              0       -12.4858
            258       -1.17333              0       -12.4858
            259       -1.17333              0       -12.4858
            260       -1.17333              0       -12.4858
            261       -1.17333              0       -12.4858
            262       -1.17333              0       -12.4858
            263       -1.17333              0       -12.4858
            264       -1.17333              0       -12.4858
            265       -1.17333              0       -12.4858
            266       -1.17333              0       -12.4858
            267       -1.17333              0       -12.4858
            268       -1.17333              0       -12.4858
            269       -1.17333              0       -12.4858
            270       -1.17333              0       -12.4858
            271       -1.17333              0       -12.4858
            272       -1.17333              0       -12.4858
            273       -1.17333              0       -12.4858
            274       -1.17333              0       -12.4858
            275       -1.17333              0       -12.4858
            276       -1.17333              0       -12.4858
            277       -1.17333              0       -12.4858
            278       -1.17333              0       -12.4858
            279       -1.17333              0       -12.4858
            280       -1.17333              0       -12.4858
            281       -1.17333              0       -12.4858
            282       -1.17333              0       -12.4858
            283       -1.17333              0       -12.4858
            284       -1.17333              0       -12.4858
            285       -1.17333              0       -12.4858
            286       -1.17333              0       -12.4858
            287       -1.17333              0       -12.4858
            288       -1.17333              0       -12.4858
            289       -1.17333              0       -12.4858
            290       -1.17333              0       -12.4858
            291       -1.17333              0       -12.4858
            292       -1.17333              0       -12.4858
            293       -1.17333              0       -12.4858
            294       -1.17333              0       -12.4858
            295       -1.17333              0       -12.4858
            296       -1.17333              0       -12.4858
            297       -1.17333              0       -12.4858
            298       -1.17333              0       -12.4858
            299       -1.17333              0       -12.4858
            300       -1.17333              0       -12.4858
            301       -1.17333              0       -12.4858
            302       -1.17333              0       -12.4858
            303       -1.17333              0       -12.4858
            304       -1.17333              0       -12.4858
            305       -1.17333              0       -12.4858
            306       -1.17333              0       -12.4858
            307       -1.17333              0       -12.4858
            308       -1.17333              0       -12.4858
            309       -1.17333              0       -12.4858
            310       -1.17333              0       -12.4858
            311       -1.17333              0       -12.4858
            312       -1.17333              0       -12.4858
            313       -1.17333              0       -12.4858
            314       -1.17333              0       -12.4858
            315       -1.17333              0       -12.4858
            316       -1.17333              0       -12.4858
            317       -1.17333              0       -12.4858
            318       -1.17333              0       -12.4858
            319       -1.17333              0       -12.4858
            320       -1.17333              0       -12.4858
            321       -1.17333              0       -12.4858
            322       -1.17333              0       -12.4858
            323       -1.17333              0       -12.4858
            324       -1.17333              0       -12.4858
            325       -1.17333              0       -12.4858
