seed=1725278593
seed2=374
L=10
nstep=10000
tw=1
Jz=0
eps=5
alpha=0
Sz=0
pbc=0
type=1
beta=10
tau=0.001
Jxy=1
wc=10
ss=1
              1           -0.2              0        -7.7047
              2           -0.5              0       -9.28294
              3           -0.6              0       -9.89591
              4          -0.75              0       -10.5512
              5          -0.88              0       -11.0394
              6             -1              0       -11.3785
              7       -1.05714              0       -11.6818
              8         -1.125              0       -11.9022
              9           -1.2              0       -12.2928
             10          -1.24              0       -12.6314
             11       -1.27273              0       -12.8913
             12       -1.28333              0       -13.1575
             13       -1.29231              0       -13.4167
             14       -1.27143              0        -13.739
             15       -1.26667              0       -14.0286
             16          -1.25              0       -14.2901
             17       -1.21176              0       -14.5377
             18       -1.17778              0       -14.7524
             19       -1.14737              0       -14.9444
             20          -1.13              0       -15.1096
             21          -1.13              0       -15.1096
             22          -1.13              0       -15.1096
             23          -1.13              0       -15.1096
             24          -1.13              0       -15.1096
             25          -1.13              0       -15.1096
             26          -1.13              0       -15.1096
             27          -1.13              0       -15.1096
             28          -1.13              0       -15.1096
             29       -1.08571              0       -15.7239
             30       -1.04545              0       -16.2933
             31        -1.0087              0       -16.8131
             32         -0.975              0       -17.2897
             33         -0.944              0       -17.7281
             34      -0.915385              0       -18.1328
             35      -0.888889              0       -18.5075
             36      -0.864286              0       -18.8555
             37      -0.841379              0       -19.1794
             38          -0.82              0       -19.4818
             39      -0.793548              0       -19.7926
             40       -0.76875              0        -20.084
             41      -0.745455              0       -20.3577
             42      -0.723529              0       -20.6153
             43      -0.702857              0       -20.8582
             44      -0.683333              0       -21.0876
             45      -0.664865              0       -21.3046
             46      -0.647368              0       -21.5102
             47      -0.630769              0       -21.7053
             48         -0.615              0       -21.8906
             49           -0.6              0       -22.0668
             50      -0.585714              0       -22.2347
             51      -0.572093              0       -22.3947
             52      -0.559091              0       -22.5475
             53      -0.546667              0       -22.6935
             54      -0.534783              0       -22.8331
             55      -0.523404              0       -22.9668
             56        -0.5125              0       -23.0949
             57      -0.502041              0       -23.2178
             58         -0.492              0       -23.3358
             59      -0.486275              0       -23.4417
             60      -0.480769              0       -23.5435
             61      -0.475472              0       -23.6414
             62       -0.47037              0       -23.7357
             63      -0.465455              0       -23.8266
             64      -0.460714              0       -23.9141
             65       -0.45614              0       -24.0044
             66      -0.455172              0       -24.0911
             67      -0.454237              0       -24.1748
             68      -0.453333              0       -24.2558
             69      -0.452459              0       -24.3341
             70      -0.448387              0       -24.4108
             71      -0.444444              0       -24.4851
             72      -0.440625              0       -24.5571
             73      -0.436923              0       -24.6269
             74      -0.433333              0       -24.6945
             75      -0.432836              0       -24.7585
             76      -0.432353              0       -24.8205
             77      -0.428986              0       -24.8824
             78      -0.425714              0       -24.9426
             79      -0.422535              0        -25.001
             80      -0.419444              0       -25.0578
             81      -0.419178              0       -25.1129
             82      -0.418919              0       -25.1666
             83      -0.418667              0       -25.2188
             84      -0.418421              0       -25.2696
             85      -0.420779              0       -25.3188
             86      -0.423077              0       -25.3668
             87      -0.425316              0       -25.4136
             88        -0.4275              0       -25.4592
             89       -0.42963              0       -25.5036
             90      -0.431707              0        -25.547
             91      -0.433735              0       -25.5894
             92      -0.433333              0       -25.6309
             93      -0.430588              0       -25.6719
             94      -0.427907              0        -25.712
             95      -0.425287              0       -25.7511
             96      -0.420455              0       -25.7894
             97       -0.41573              0       -25.8267
             98      -0.411111              0       -25.8633
             99      -0.406593              0       -25.8991
            100      -0.402174              0        -25.934
            101      -0.397849              0       -25.9683
            102      -0.393617              0       -26.0018
            103      -0.389474              0       -26.0345
            104        -0.3875              0       -26.0649
            105      -0.385567              0       -26.0947
            106      -0.383673              0       -26.1238
            107      -0.381818              0       -26.1523
            108          -0.38              0       -26.1803
            109      -0.376238              0       -26.2094
            110       -0.37451              0       -26.2374
            111      -0.372816              0       -26.2649
            112      -0.371154              0       -26.2919
            113      -0.369524              0       -26.3183
            114      -0.367925              0       -26.3443
            115      -0.366355              0       -26.3698
            116      -0.364815              0       -26.3947
            117      -0.361468              0       -26.4197
            118      -0.358182              0       -26.4442
            119      -0.354955              0       -26.4683
            120      -0.351786              0        -26.492
            121      -0.348673              0       -26.5152
            122      -0.345614              0        -26.538
            123      -0.342609              0       -26.5604
            124      -0.339655              0       -26.5825
            125      -0.336752              0       -26.6041
            126      -0.333898              0       -26.6254
            127      -0.332773              0       -26.6462
            128      -0.331667              0       -26.6666
            129      -0.330579              0       -26.6866
            130      -0.327869              0       -26.7066
            131      -0.325203              0       -26.7262
            132      -0.322581              0       -26.7454
            133          -0.32              0       -26.7644
            134       -0.31746              0       -26.7831
            135      -0.314961              0       -26.8015
            136        -0.3125              0       -26.8196
            137      -0.310078              0       -26.8374
            138      -0.307692              0       -26.8549
            139      -0.305344              0       -26.8722
            140       -0.30303              0       -26.8892
            141      -0.302256              0       -26.9052
            142           -0.3              0       -26.9217
            143      -0.297778              0        -26.938
            144      -0.295588              0        -26.954
            145      -0.293431              0       -26.9698
            146      -0.292754              0       -26.9846
            147      -0.292086              0       -26.9993
            148      -0.291429              0       -27.0137
            149      -0.289362              0       -27.0286
            150      -0.288732              0       -27.0412
            151      -0.288112              0       -27.0535
            152      -0.286111              0       -27.0679
            153      -0.285517              0       -27.0819
            154      -0.284932              0       -27.0957
            155      -0.285714              0       -27.1069
            156      -0.286486              0       -27.1179
            157      -0.287248              0       -27.1288
            158         -0.288              0       -27.1389
            159      -0.287417              0       -27.1512
            160      -0.286842              0       -27.1633
            161      -0.286275              0       -27.1753
            162      -0.284416              0       -27.1879
            163      -0.282581              0       -27.2004
            164      -0.280769              0       -27.2126
            165      -0.278981              0       -27.2248
            166      -0.277215              0       -27.2367
            167      -0.275472              0       -27.2486
            168       -0.27375              0       -27.2602
            169       -0.27205              0       -27.2718
            170       -0.27037              0       -27.2832
            171      -0.268712              0       -27.2944
            172      -0.267073              0       -27.3055
            173      -0.265455              0       -27.3165
            174      -0.263855              0       -27.3274
            175      -0.262275              0       -27.3381
            176      -0.260714              0       -27.3487
            177      -0.259172              0       -27.3591
            178      -0.257647              0       -27.3695
            179       -0.25731              0       -27.3794
            180      -0.255814              0       -27.3895
            181      -0.254335              0       -27.3995
            182      -0.252874              0       -27.4094
            183      -0.251429              0       -27.4191
            184          -0.25              0       -27.4288
            185      -0.248588              0       -27.4383
            186      -0.247191              0       -27.4477
            187       -0.24581              0       -27.4571
            188      -0.244444              0       -27.4663
            189      -0.243094              0       -27.4754
            190      -0.241758              0       -27.4844
            191      -0.240437              0       -27.4933
            192       -0.23913              0       -27.5022
            193      -0.237838              0       -27.5109
            194      -0.236559              0       -27.5195
            195      -0.235294              0       -27.5281
            196      -0.234043              0       -27.5365
            197      -0.232804              0       -27.5449
            198      -0.231579              0       -27.5532
            199      -0.230366              0       -27.5613
            200      -0.230208              0       -27.5682
            201      -0.230052              0       -27.5761
            202      -0.229897              0       -27.5838
            203      -0.229744              0       -27.5915
            204      -0.229592              0       -27.5992
            205      -0.230457              0       -27.6034
            206      -0.231313              0       -27.6076
            207      -0.232161              0       -27.6118
            208         -0.233              0       -27.6159
            209      -0.231841              0       -27.6233
            210      -0.230693              0       -27.6307
            211      -0.229557              0        -27.638
            212      -0.228431              0       -27.6453
            213      -0.227317              0       -27.6525
            214      -0.226214              0       -27.6596
            215      -0.225121              0       -27.6666
            216         -0.225              0       -27.6729
            217       -0.22488              0       -27.6791
            218      -0.224762              0       -27.6853
            219      -0.224645              0       -27.6914
            220      -0.225472              0       -27.6974
            221      -0.226291              0       -27.7033
            222      -0.227103              0       -27.7092
            223      -0.227907              0        -27.715
            224      -0.228704              0       -27.7208
            225      -0.228571              0       -27.7271
            226       -0.22844              0       -27.7335
            227      -0.228311              0       -27.7397
            228      -0.229091              0       -27.7455
            229      -0.229864              0       -27.7513
            230       -0.22973              0       -27.7574
            231        -0.2287              0       -27.7635
            232      -0.228571              0       -27.7685
            233      -0.228444              0       -27.7735
            234      -0.229204              0       -27.7783
            235      -0.230837              0        -27.783
            236      -0.232456              0       -27.7875
            237      -0.234061              0       -27.7921
            238      -0.234783              0       -27.7967
            239      -0.234632              0       -27.8023
            240      -0.234483              0       -27.8079
            241      -0.234335              0       -27.8134
            242      -0.234188              0       -27.8189
            243      -0.234894              0        -27.824
            244      -0.235593              0       -27.8291
            245      -0.236287              0       -27.8341
            246      -0.236975              0       -27.8391
            247      -0.237657              0        -27.844
            248      -0.238333              0       -27.8489
            249      -0.239004              0       -27.8538
            250      -0.239669              0       -27.8586
            251      -0.240329              0       -27.8634
            252      -0.240984              0       -27.8682
            253      -0.242449              0       -27.8727
            254      -0.243089              0       -27.8768
            255      -0.243725              0       -27.8808
            256      -0.244355              0       -27.8848
            257       -0.24498              0       -27.8887
            258        -0.2456              0       -27.8926
            259      -0.246215              0       -27.8964
            260      -0.246032              0       -27.9006
            261      -0.245059              0       -27.9054
            262      -0.244094              0       -27.9102
            263      -0.243137              0       -27.9149
            264      -0.242188              0       -27.9196
            265      -0.241245              0       -27.9243
            266       -0.24031              0       -27.9289
            267      -0.239382              0       -27.9335
            268      -0.238462              0        -27.938
            269      -0.237548              0       -27.9426
            270      -0.236641              0        -27.947
            271      -0.236502              0       -27.9515
            272      -0.235606              0       -27.9559
            273      -0.234717              0       -27.9603
            274      -0.233835              0       -27.9646
            275      -0.232959              0       -27.9689
            276      -0.232836              0       -27.9724
            277      -0.232714              0       -27.9758
            278      -0.232593              0       -27.9793
            279      -0.231734              0       -27.9835
            280      -0.230882              0       -27.9876
            281      -0.230037              0       -27.9918
            282      -0.229197              0       -27.9959
            283      -0.228364              0            -28
            284      -0.227536              0        -28.004
            285      -0.226715              0        -28.008
            286      -0.225899              0        -28.012
            287       -0.22509              0        -28.016
            288      -0.224286              0       -28.0199
            289      -0.223488              0       -28.0238
            290      -0.223404              0       -28.0273
            291      -0.222615              0       -28.0311
            292      -0.221831              0       -28.0349
            293      -0.222456              0       -28.0374
            294      -0.223077              0       -28.0399
            295      -0.223693              0       -28.0423
            296      -0.224306              0       -28.0448
            297      -0.224913              0       -28.0472
            298      -0.225517              0       -28.0496
            299      -0.226117              0        -28.052
            300      -0.226712              0       -28.0545
            301      -0.227304              0        -28.057
            302      -0.227891              0       -28.0594
            303      -0.228475              0       -28.0618
            304       -0.22973              0       -28.0645
            305       -0.23165              0       -28.0664
            306      -0.232886              0       -28.0691
            307      -0.233445              0       -28.0718
            308         -0.234              0       -28.0746
            309      -0.234551              0       -28.0773
            310      -0.235099              0         -28.08
            311      -0.234983              0       -28.0829
            312      -0.234868              0       -28.0858
            313      -0.234754              0       -28.0886
            314      -0.235294              0       -28.0908
            315      -0.235831              0       -28.0929
            316      -0.236364              0       -28.0951
            317      -0.236246              0       -28.0978
            318      -0.235484              0       -28.1011
            319      -0.234727              0       -28.1044
            320      -0.233974              0       -28.1076
            321      -0.233227              0       -28.1109
            322      -0.232484              0       -28.1141
            323      -0.232381              0       -28.1162
            324      -0.232278              0       -28.1183
            325      -0.231546              0       -28.1214
