seed=1725259037
seed2=122
L=10
nstep=10000
tw=1
Jz=0
eps=5
alpha=0
Sz=0
pbc=0
type=1
beta=10
tau=0.001
Jxy=1
wc=10
ss=1
              1           -0.2              0       -10.6181
              2           -0.3              0       -10.7054
              3      -0.466667              0       -10.6379
              4           -0.6              0       -11.0617
              5          -0.76              0       -11.3341
              6      -0.833333              0       -11.9544
              7      -0.885714              0         -12.42
              8         -0.925              0       -12.7692
              9      -0.977778              0       -13.0394
             10          -1.02              0       -13.2563
             11       -1.07273              0       -13.4604
             12       -1.13333              0       -13.6365
             13       -1.16923              0       -13.8133
             14       -1.18571              0       -13.9909
             15       -1.21333              0       -14.2139
             16         -1.225              0       -14.4247
             17       -1.23529              0       -14.6209
             18       -1.24444              0       -14.7954
             19       -1.26316              0       -14.9547
             20          -1.27              0        -15.127
             21       -1.29524              0       -15.2977
             22       -1.31818              0       -15.4647
             23       -1.33913              0         -15.61
             24       -1.36667              0        -15.737
             25         -1.384              0       -15.8497
             26           -1.4              0       -15.9556
             27       -1.40741              0       -16.0659
             28       -1.41429              0       -16.1732
             29       -1.42759              0       -16.2618
             30       -1.44667              0       -16.3489
             31       -1.46452              0       -16.4221
             32       -1.48125              0       -16.4908
             33       -1.49697              0       -16.5552
             34       -1.51176              0       -16.6223
             35       -1.51429              0       -16.6878
             36       -1.51667              0       -16.7451
             37       -1.51892              0       -16.7988
             38       -1.51579              0       -16.8568
             39       -1.51282              0       -16.9128
             40         -1.515              0       -16.9634
             41       -1.52195              0       -17.0116
             42       -1.52381              0       -17.0631
             43       -1.51628              0        -17.115
             44           -1.5              0       -17.1654
             45       -1.48889              0       -17.2136
             46       -1.47826              0       -17.2603
             47       -1.46809              0       -17.3056
             48       -1.45833              0       -17.3487
             49        -1.4449              0       -17.3906
             50         -1.432              0       -17.4307
             51       -1.42353              0       -17.4588
             52       -1.41538              0        -17.491
             53       -1.41509              0       -17.5163
             54       -1.41111              0       -17.5404
             55       -1.41091              0       -17.5634
             56       -1.41071              0       -17.5855
             57       -1.40702              0       -17.6072
             58       -1.40345              0       -17.6282
             59           -1.4              0       -17.6478
             60       -1.39667              0       -17.6725
             61       -1.39016              0        -17.697
             62       -1.38065              0       -17.7219
             63       -1.37143              0       -17.7539
             64       -1.35313              0       -17.7907
             65       -1.33846              0       -17.8254
             66       -1.31818              0       -17.8635
             67       -1.30448              0       -17.8972
             68       -1.29118              0       -17.9299
             69       -1.28406              0        -17.961
             70          -1.28              0       -17.9901
             71       -1.27606              0       -18.0184
             72       -1.26944              0       -18.0473
             73       -1.26027              0       -18.0771
             74       -1.25135              0       -18.1066
             75       -1.24267              0       -18.1352
             76       -1.23421              0       -18.1631
             77       -1.22597              0       -18.1903
             78       -1.22051              0        -18.216
             79       -1.21519              0       -18.2394
             80        -1.2125              0       -18.2609
             81       -1.20988              0       -18.2818
             82        -1.2122              0       -18.3007
             83       -1.21205              0       -18.3194
             84       -1.20952              0       -18.3387
             85       -1.20706              0       -18.3575
             86           -1.2              0       -18.3766
             87        -1.1908              0       -18.3958
             88       -1.18182              0       -18.4145
             89       -1.17079              0        -18.435
             90          -1.16              0        -18.455
             91       -1.14725              0       -18.4758
             92       -1.13478              0       -18.4961
             93       -1.13478              0       -18.4961
             94       -1.13478              0       -18.4961
             95       -1.13478              0       -18.4961
             96       -1.13478              0       -18.4961
             97       -1.13478              0       -18.4961
             98       -1.13478              0       -18.4961
             99       -1.13478              0       -18.4961
            100       -1.13478              0       -18.4961
            101       -1.13478              0       -18.4961
            102       -1.13478              0       -18.4961
            103       -1.13478              0       -18.4961
            104       -1.13478              0       -18.4961
            105       -1.13478              0       -18.4961
            106       -1.13478              0       -18.4961
            107       -1.13478              0       -18.4961
            108       -1.13478              0       -18.4961
            109       -1.13478              0       -18.4961
            110       -1.13478              0       -18.4961
            111       -1.13478              0       -18.4961
            112       -1.13478              0       -18.4961
            113       -1.13478              0       -18.4961
            114       -1.13478              0       -18.4961
            115       -1.13478              0       -18.4961
            116       -1.13478              0       -18.4961
            117       -1.13478              0       -18.4961
            118       -1.13478              0       -18.4961
            119       -1.13478              0       -18.4961
            120       -1.13478              0       -18.4961
            121       -1.13478              0       -18.4961
            122       -1.13478              0       -18.4961
            123       -1.13478              0       -18.4961
            124       -1.13478              0       -18.4961
            125       -1.13478              0       -18.4961
            126       -1.13478              0       -18.4961
            127       -1.13478              0       -18.4961
            128       -1.13478              0       -18.4961
            129       -1.13478              0       -18.4961
            130       -1.13478              0       -18.4961
            131       -1.13478              0       -18.4961
            132       -1.13478              0       -18.4961
            133       -1.13478              0       -18.4961
            134       -1.13478              0       -18.4961
            135       -1.13478              0       -18.4961
            136       -1.13478              0       -18.4961
            137       -1.13478              0       -18.4961
            138       -1.13478              0       -18.4961
            139       -1.13478              0       -18.4961
            140       -1.13478              0       -18.4961
            141       -1.13478              0       -18.4961
            142       -1.13478              0       -18.4961
            143       -1.13478              0       -18.4961
            144       -1.13478              0       -18.4961
            145       -1.13478              0       -18.4961
            146       -1.13478              0       -18.4961
            147       -1.13478              0       -18.4961
            148       -1.13478              0       -18.4961
            149       -1.13478              0       -18.4961
            150       -1.13478              0       -18.4961
            151       -1.13478              0       -18.4961
            152       -1.13478              0       -18.4961
            153       -1.13478              0       -18.4961
            154       -1.13478              0       -18.4961
            155       -1.13478              0       -18.4961
            156       -1.13478              0       -18.4961
            157       -1.13478              0       -18.4961
            158       -1.13478              0       -18.4961
            159       -1.13478              0       -18.4961
            160       -1.13478              0       -18.4961
            161       -1.13478              0       -18.4961
            162       -1.13478              0       -18.4961
            163       -1.13478              0       -18.4961
            164       -1.13478              0       -18.4961
            165       -1.13478              0       -18.4961
            166       -1.13478              0       -18.4961
            167       -1.13478              0       -18.4961
            168       -1.13478              0       -18.4961
            169       -1.13478              0       -18.4961
            170       -1.13478              0       -18.4961
            171       -1.13478              0       -18.4961
            172       -1.13478              0       -18.4961
            173       -1.13478              0       -18.4961
            174       -1.13478              0       -18.4961
            175       -1.13478              0       -18.4961
            176       -1.13478              0       -18.4961
            177       -1.13478              0       -18.4961
            178       -1.13478              0       -18.4961
            179       -1.13478              0       -18.4961
            180       -1.13478              0       -18.4961
            181       -1.13478              0       -18.4961
            182       -1.13478              0       -18.4961
            183       -1.13478              0       -18.4961
            184       -1.13478              0       -18.4961
            185       -1.13478              0       -18.4961
            186       -1.13478              0       -18.4961
            187       -1.13478              0       -18.4961
            188       -1.13478              0       -18.4961
            189       -1.13478              0       -18.4961
            190       -1.13478              0       -18.4961
            191       -1.13478              0       -18.4961
            192       -1.13478              0       -18.4961
            193       -1.13478              0       -18.4961
            194       -1.13478              0       -18.4961
            195       -1.13478              0       -18.4961
            196       -1.13478              0       -18.4961
            197       -1.13478              0       -18.4961
            198       -1.13478              0       -18.4961
            199       -1.13478              0       -18.4961
            200       -1.13478              0       -18.4961
            201       -1.13478              0       -18.4961
            202       -1.13478              0       -18.4961
            203       -1.13478              0       -18.4961
            204       -1.13478              0       -18.4961
            205       -1.13478              0       -18.4961
            206       -1.13478              0       -18.4961
            207       -1.13478              0       -18.4961
            208       -1.13478              0       -18.4961
            209       -1.13478              0       -18.4961
            210       -1.13478              0       -18.4961
            211       -1.13478              0       -18.4961
            212       -1.13478              0       -18.4961
            213       -1.13478              0       -18.4961
            214       -1.13478              0       -18.4961
            215       -1.12473              0       -18.5796
            216       -1.11489              0       -18.6614
            217       -1.10526              0       -18.7414
            218       -1.09583              0       -18.8198
            219        -1.0866              0       -18.8966
            220       -1.07755              0       -18.9718
            221       -1.06869              0       -19.0454
            222          -1.06              0       -19.1176
            223       -1.05149              0       -19.1884
            224       -1.04314              0       -19.2578
            225       -1.03495              0       -19.3258
            226       -1.02692              0       -19.3925
            227       -1.01905              0        -19.458
            228       -1.01132              0       -19.5222
            229       -1.00374              0       -19.5852
            230      -0.996296              0       -19.6471
            231      -0.988991              0       -19.7078
            232      -0.981818              0       -19.7674
            233      -0.974775              0       -19.8252
            234      -0.967857              0       -19.8819
            235      -0.961062              0       -19.9377
            236      -0.954386              0       -19.9924
            237      -0.947826              0       -20.0462
            238      -0.941379              0       -20.0991
            239      -0.936752              0       -20.1509
            240      -0.932203              0       -20.2019
            241      -0.927731              0       -20.2521
            242      -0.923333              0       -20.3014
            243      -0.920661              0       -20.3469
            244      -0.919672              0       -20.3914
            245      -0.917073              0       -20.4362
            246      -0.914516              0       -20.4802
            247         -0.912              0       -20.5235
            248      -0.909524              0       -20.5659
            249      -0.905512              0       -20.6103
            250      -0.901563              0        -20.654
            251      -0.897674              0       -20.6971
            252      -0.893846              0       -20.7394
            253       -0.88855              0       -20.7816
            254      -0.883333              0       -20.8232
            255      -0.878195              0       -20.8641
            256      -0.873134              0       -20.9044
            257      -0.868148              0       -20.9441
            258      -0.861765              0       -20.9834
            259      -0.855474              0       -21.0222
            260      -0.849275              0       -21.0603
            261      -0.843165              0       -21.0979
            262      -0.837143              0        -21.135
            263      -0.832624              0       -21.1706
            264      -0.826761              0       -21.2066
            265      -0.820979              0       -21.2422
            266      -0.815278              0       -21.2772
            267      -0.809655              0       -21.3118
            268       -0.80411              0       -21.3459
            269      -0.798639              0       -21.3795
            270      -0.793243              0       -21.4127
            271      -0.787919              0       -21.4454
            272      -0.782667              0       -21.4777
            273      -0.778808              0        -21.509
            274         -0.775              0        -21.539
            275      -0.771242              0       -21.5686
            276      -0.767532              0       -21.5977
            277      -0.763871              0       -21.6264
            278      -0.760256              0       -21.6548
            279      -0.756688              0       -21.6828
            280      -0.753165              0       -21.7105
            281      -0.749686              0       -21.7378
            282       -0.74625              0       -21.7648
            283      -0.742857              0       -21.7914
            284      -0.739506              0       -21.8177
            285      -0.736196              0       -21.8437
            286      -0.732927              0       -21.8694
            287      -0.729697              0       -21.8947
            288      -0.726506              0       -21.9198
            289      -0.723353              0       -21.9445
            290      -0.720238              0       -21.9701
            291       -0.71716              0       -21.9955
            292      -0.714118              0       -22.0205
            293      -0.712281              0       -22.0451
            294      -0.709302              0       -22.0696
            295      -0.706358              0       -22.0939
            296      -0.703448              0       -22.1179
            297      -0.701714              0       -22.1399
            298           -0.7              0       -22.1616
            299      -0.698305              0       -22.1832
            300      -0.696629              0       -22.2044
            301      -0.693855              0       -22.2264
            302      -0.691111              0       -22.2481
            303      -0.687293              0       -22.2704
            304      -0.683516              0       -22.2925
            305      -0.679781              0       -22.3143
            306      -0.677174              0       -22.3357
            307      -0.674595              0       -22.3568
            308      -0.672043              0       -22.3777
            309      -0.669519              0       -22.3984
            310      -0.667021              0       -22.4189
            311       -0.66455              0       -22.4392
            312      -0.662105              0       -22.4584
            313       -0.66178              0       -22.4761
            314      -0.661458              0       -22.4935
            315       -0.66114              0        -22.511
            316      -0.658763              0       -22.5303
            317       -0.65641              0       -22.5495
            318      -0.654082              0       -22.5684
            319      -0.651777              0       -22.5871
            320      -0.649495              0       -22.6057
            321      -0.647236              0       -22.6241
            322         -0.645              0       -22.6422
            323      -0.642786              0       -22.6603
            324      -0.640594              0       -22.6781
            325      -0.638424              0       -22.6957
