seed=1725278593
seed2=133
L=10
nstep=10000
tw=1
Jz=0
eps=5
alpha=0
Sz=0
pbc=0
type=1
beta=10
tau=0.001
Jxy=1
wc=10
ss=1
              1           -0.4              0       -16.5557
              2           -0.6              0       -16.8246
              3      -0.733333              0       -17.0105
              4           -0.9              0       -17.4189
              5             -1              0       -17.6802
              6       -1.03333              0       -17.8588
              7       -1.02857              0       -17.9921
              8         -1.025              0       -18.1467
              9       -1.02222              0       -18.2669
             10          -1.02              0       -18.3631
             11             -1              0       -18.4876
             12      -0.966667              0       -18.5939
             13      -0.923077              0       -18.6846
             14           -0.9              0       -18.7562
             15           -0.9              0       -18.7562
             16           -0.9              0       -18.7562
             17           -0.9              0       -18.7562
             18           -0.9              0       -18.7562
             19           -0.9              0       -18.7562
             20           -0.9              0       -18.7562
             21           -0.9              0       -18.7562
             22           -0.9              0       -18.7562
             23           -0.9              0       -18.7562
             24           -0.9              0       -18.7562
             25           -0.9              0       -18.7562
             26           -0.9              0       -18.7562
             27           -0.9              0       -18.7562
             28           -0.9              0       -18.7562
             29           -0.9              0       -18.7562
             30           -0.9              0       -18.7562
             31           -0.9              0       -18.7562
             32           -0.9              0       -18.7562
             33           -0.9              0       -18.7562
             34           -0.9              0       -18.7562
             35           -0.9              0       -18.7562
             36           -0.9              0       -18.7562
             37           -0.9              0       -18.7562
             38           -0.9              0       -18.7562
             39           -0.9              0       -18.7562
             40           -0.9              0       -18.7562
             41           -0.9              0       -18.7562
             42           -0.9              0       -18.7562
             43           -0.9              0       -18.7562
             44           -0.9              0       -18.7562
             45           -0.9              0       -18.7562
             46           -0.9              0       -18.7562
             47           -0.9              0       -18.7562
             48           -0.9              0       -18.7562
             49           -0.9              0       -18.7562
             50           -0.9              0       -18.7562
             51           -0.9              0       -18.7562
             52           -0.9              0       -18.7562
             53           -0.9              0       -18.7562
             54           -0.9              0       -18.7562
             55           -0.9              0       -18.7562
             56           -0.9              0       -18.7562
             57           -0.9              0       -18.7562
             58           -0.9              0       -18.7562
             59           -0.9              0       -18.7562
             60           -0.9              0       -18.7562
             61           -0.9              0       -18.7562
             62           -0.9              0       -18.7562
             63           -0.9              0       -18.7562
             64           -0.9              0       -18.7562
             65           -0.9              0       -18.7562
             66           -0.9              0       -18.7562
             67           -0.9              0       -18.7562
             68           -0.9              0       -18.7562
             69           -0.9              0       -18.7562
             70           -0.9              0       -18.7562
             71           -0.9              0       -18.7562
             72           -0.9              0       -18.7562
             73           -0.9              0       -18.7562
             74           -0.9              0       -18.7562
             75           -0.9              0       -18.7562
             76           -0.9              0       -18.7562
             77           -0.9              0       -18.7562
             78           -0.9              0       -18.7562
             79           -0.9              0       -18.7562
             80           -0.9              0       -18.7562
             81           -0.9              0       -18.7562
             82           -0.9              0       -18.7562
             83           -0.9              0       -18.7562
             84           -0.9              0       -18.7562
             85           -0.9              0       -18.7562
             86           -0.9              0       -18.7562
             87           -0.9              0       -18.7562
             88           -0.9              0       -18.7562
             89           -0.9              0       -18.7562
             90           -0.9              0       -18.7562
             91           -0.9              0       -18.7562
             92           -0.9              0       -18.7562
             93           -0.9              0       -18.7562
             94           -0.9              0       -18.7562
             95           -0.9              0       -18.7562
             96           -0.9              0       -18.7562
             97           -0.9              0       -18.7562
             98           -0.9              0       -18.7562
             99           -0.9              0       -18.7562
            100           -0.9              0       -18.7562
            101           -0.9              0       -18.7562
            102           -0.9              0       -18.7562
            103           -0.9              0       -18.7562
            104           -0.9              0       -18.7562
            105           -0.9              0       -18.7562
            106           -0.9              0       -18.7562
            107           -0.9              0       -18.7562
            108           -0.9              0       -18.7562
            109           -0.9              0       -18.7562
            110           -0.9              0       -18.7562
            111           -0.9              0       -18.7562
            112           -0.9              0       -18.7562
            113           -0.9              0       -18.7562
            114           -0.9              0       -18.7562
            115           -0.9              0       -18.7562
            116           -0.9              0       -18.7562
            117           -0.9              0       -18.7562
            118           -0.9              0       -18.7562
            119           -0.9              0       -18.7562
            120           -0.9              0       -18.7562
            121           -0.9              0       -18.7562
            122           -0.9              0       -18.7562
            123           -0.9              0       -18.7562
            124           -0.9              0       -18.7562
            125           -0.9              0       -18.7562
            126           -0.9              0       -18.7562
            127           -0.9              0       -18.7562
            128           -0.9              0       -18.7562
            129           -0.9              0       -18.7562
            130           -0.9              0       -18.7562
            131           -0.9              0       -18.7562
            132           -0.9              0       -18.7562
            133           -0.9              0       -18.7562
            134           -0.9              0       -18.7562
            135           -0.9              0       -18.7562
            136           -0.9              0       -18.7562
            137           -0.9              0       -18.7562
            138           -0.9              0       -18.7562
            139           -0.9              0       -18.7562
            140           -0.9              0       -18.7562
            141           -0.9              0       -18.7562
            142           -0.9              0       -18.7562
            143           -0.9              0       -18.7562
            144           -0.9              0       -18.7562
            145           -0.9              0       -18.7562
            146           -0.9              0       -18.7562
            147           -0.9              0       -18.7562
            148           -0.9              0       -18.7562
            149           -0.9              0       -18.7562
            150           -0.9              0       -18.7562
            151           -0.9              0       -18.7562
            152           -0.9              0       -18.7562
            153           -0.9              0       -18.7562
            154           -0.9              0       -18.7562
            155           -0.9              0       -18.7562
            156           -0.9              0       -18.7562
            157           -0.9              0       -18.7562
            158           -0.9              0       -18.7562
            159           -0.9              0       -18.7562
            160           -0.9              0       -18.7562
            161           -0.9              0       -18.7562
            162           -0.9              0       -18.7562
            163           -0.9              0       -18.7562
            164           -0.9              0       -18.7562
            165           -0.9              0       -18.7562
            166           -0.9              0       -18.7562
            167           -0.9              0       -18.7562
            168           -0.9              0       -18.7562
            169           -0.9              0       -18.7562
            170           -0.9              0       -18.7562
            171           -0.9              0       -18.7562
            172           -0.9              0       -18.7562
            173           -0.9              0       -18.7562
            174           -0.9              0       -18.7562
            175           -0.9              0       -18.7562
            176           -0.9              0       -18.7562
            177           -0.9              0       -18.7562
            178           -0.9              0       -18.7562
            179           -0.9              0       -18.7562
            180           -0.9              0       -18.7562
            181           -0.9              0       -18.7562
            182           -0.9              0       -18.7562
            183           -0.9              0       -18.7562
            184           -0.9              0       -18.7562
            185           -0.9              0       -18.7562
            186           -0.9              0       -18.7562
            187           -0.9              0       -18.7562
            188           -0.9              0       -18.7562
            189           -0.9              0       -18.7562
            190           -0.9              0       -18.7562
            191           -0.9              0       -18.7562
            192           -0.9              0       -18.7562
            193           -0.9              0       -18.7562
            194           -0.9              0       -18.7562
            195           -0.9              0       -18.7562
            196           -0.9              0       -18.7562
            197           -0.9              0       -18.7562
            198           -0.9              0       -18.7562
            199           -0.9              0       -18.7562
            200           -0.9              0       -18.7562
            201           -0.9              0       -18.7562
            202           -0.9              0       -18.7562
            203           -0.9              0       -18.7562
            204           -0.9              0       -18.7562
            205           -0.9              0       -18.7562
            206           -0.9              0       -18.7562
            207           -0.9              0       -18.7562
            208           -0.9              0       -18.7562
            209           -0.9              0       -18.7562
            210           -0.9              0       -18.7562
            211           -0.9              0       -18.7562
            212           -0.9              0       -18.7562
            213           -0.9              0       -18.7562
            214           -0.9              0       -18.7562
            215           -0.9              0       -18.7562
            216           -0.9              0       -18.7562
            217           -0.9              0       -18.7562
            218           -0.9              0       -18.7562
            219           -0.9              0       -18.7562
            220           -0.9              0       -18.7562
            221           -0.9              0       -18.7562
            222           -0.9              0       -18.7562
            223           -0.9              0       -18.7562
            224           -0.9              0       -18.7562
            225           -0.9              0       -18.7562
            226           -0.9              0       -18.7562
            227           -0.9              0       -18.7562
            228           -0.9              0       -18.7562
            229           -0.9              0       -18.7562
            230           -0.9              0       -18.7562
            231           -0.9              0       -18.7562
            232           -0.9              0       -18.7562
            233           -0.9              0       -18.7562
            234           -0.9              0       -18.7562
            235           -0.9              0       -18.7562
            236           -0.9              0       -18.7562
            237           -0.9              0       -18.7562
            238           -0.9              0       -18.7562
            239           -0.9              0       -18.7562
            240           -0.9              0       -18.7562
            241           -0.9              0       -18.7562
            242           -0.9              0       -18.7562
            243           -0.9              0       -18.7562
            244           -0.9              0       -18.7562
            245           -0.9              0       -18.7562
            246           -0.9              0       -18.7562
            247           -0.9              0       -18.7562
            248           -0.9              0       -18.7562
            249           -0.9              0       -18.7562
            250           -0.9              0       -18.7562
            251           -0.9              0       -18.7562
            252           -0.9              0       -18.7562
            253           -0.9              0       -18.7562
            254           -0.9              0       -18.7562
            255           -0.9              0       -18.7562
            256           -0.9              0       -18.7562
            257           -0.9              0       -18.7562
            258           -0.9              0       -18.7562
            259           -0.9              0       -18.7562
            260           -0.9              0       -18.7562
            261           -0.9              0       -18.7562
            262           -0.9              0       -18.7562
            263           -0.9              0       -18.7562
            264           -0.9              0       -18.7562
            265           -0.9              0       -18.7562
            266           -0.9              0       -18.7562
            267           -0.9              0       -18.7562
            268           -0.9              0       -18.7562
            269           -0.9              0       -18.7562
            270           -0.9              0       -18.7562
            271           -0.9              0       -18.7562
            272           -0.9              0       -18.7562
            273           -0.9              0       -18.7562
            274           -0.9              0       -18.7562
            275           -0.9              0       -18.7562
            276           -0.9              0       -18.7562
            277           -0.9              0       -18.7562
            278           -0.9              0       -18.7562
            279           -0.9              0       -18.7562
            280           -0.9              0       -18.7562
            281           -0.9              0       -18.7562
            282           -0.9              0       -18.7562
            283           -0.9              0       -18.7562
            284           -0.9              0       -18.7562
            285           -0.9              0       -18.7562
            286           -0.9              0       -18.7562
            287           -0.9              0       -18.7562
            288           -0.9              0       -18.7562
            289           -0.9              0       -18.7562
            290           -0.9              0       -18.7562
            291           -0.9              0       -18.7562
            292           -0.9              0       -18.7562
            293           -0.9              0       -18.7562
            294           -0.9              0       -18.7562
            295           -0.9              0       -18.7562
            296           -0.9              0       -18.7562
            297           -0.9              0       -18.7562
            298           -0.9              0       -18.7562
            299           -0.9              0       -18.7562
            300           -0.9              0       -18.7562
            301           -0.9              0       -18.7562
            302           -0.9              0       -18.7562
            303           -0.9              0       -18.7562
            304           -0.9              0       -18.7562
            305           -0.9              0       -18.7562
            306           -0.9              0       -18.7562
            307           -0.9              0       -18.7562
            308           -0.9              0       -18.7562
            309           -0.9              0       -18.7562
            310           -0.9              0       -18.7562
            311           -0.9              0       -18.7562
            312           -0.9              0       -18.7562
            313           -0.9              0       -18.7562
            314           -0.9              0       -18.7562
            315           -0.9              0       -18.7562
            316           -0.9              0       -18.7562
            317           -0.9              0       -18.7562
            318           -0.9              0       -18.7562
            319           -0.9              0       -18.7562
            320           -0.9              0       -18.7562
            321           -0.9              0       -18.7562
            322           -0.9              0       -18.7562
            323           -0.9              0       -18.7562
            324           -0.9              0       -18.7562
            325           -0.9              0       -18.7562
